3997.58729	0.99944
3995.53514	0.99968
3993.48299	0.99993
3991.43084	0.99976
3989.37869	0.99946
3987.32654	0.99944
3985.27439	0.99957
3983.22224	0.99967
3981.17009	0.99976
3979.11794	0.99979
3977.06579	0.99964
3975.01364	0.99938
3972.96149	0.99922
3970.90934	0.99913
3968.85719	0.99914
3966.80504	0.99934
3964.75289	0.99958
3962.70074	0.99965
3960.64859	0.99936
3958.59645	0.99903
3956.54430	0.99926
3954.49215	0.99980
3952.44000	1.00000
3950.38785	0.99986
3948.33570	0.99976
3946.28355	0.99982
3944.23140	0.99989
3942.17925	0.99992
3940.12710	0.99989
3938.07495	0.99984
3936.02280	0.99975
3933.97065	0.99959
3931.91850	0.99931
3929.86635	0.99915
3927.81420	0.99927
3925.76205	0.99933
3923.70990	0.99932
3921.65775	0.99945
3919.60560	0.99951
3917.55345	0.99953
3915.50131	0.99979
3913.44916	0.99991
3911.39701	0.99984
3909.34486	0.99988
3907.29271	0.99975
3905.24056	0.99931
3903.18841	0.99921
3901.13626	0.99938
3899.08411	0.99937
3897.03196	0.99941
3894.97981	0.99932
3892.92766	0.99901
3890.87551	0.99887
3888.82336	0.99909
3886.77121	0.99922
3884.71906	0.99900
3882.66691	0.99871
3880.61476	0.99865
3878.56261	0.99907
3876.51046	0.99947
3874.45831	0.99945
3872.40616	0.99922
3870.35402	0.99912
3868.30187	0.99935
3866.24972	0.99954
3864.19757	0.99944
3862.14542	0.99927
3860.09327	0.99919
3858.04112	0.99922
3855.98897	0.99954
3853.93682	0.99988
3851.88467	0.99966
3849.83252	0.99953
3847.78037	0.99955
3845.72822	0.99949
3843.67607	0.99934
3841.62392	0.99921
3839.57177	0.99917
3837.51962	0.99917
3835.46747	0.99940
3833.41532	0.99952
3831.36317	0.99923
3829.31102	0.99903
3827.25888	0.99912
3825.20673	0.99915
3823.15458	0.99908
3821.10243	0.99928
3819.05028	0.99960
3816.99813	0.99959
3814.94598	0.99952
3812.89383	0.99952
3810.84168	0.99948
3808.78953	0.99960
3806.73738	0.99982
3804.68523	0.99971
3802.63308	0.99922
3800.58093	0.99873
3798.52878	0.99887
3796.47663	0.99933
3794.42448	0.99968
3792.37233	0.99984
3790.32018	0.99987
3788.26803	0.99978
3786.21588	0.99953
3784.16374	0.99930
3782.11159	0.99934
3780.05944	0.99953
3778.00729	0.99962
3775.95514	0.99960
3773.90299	0.99949
3771.85084	0.99924
3769.79869	0.99905
3767.74654	0.99904
3765.69439	0.99905
3763.64224	0.99925
3761.59009	0.99939
3759.53794	0.99901
3757.48579	0.99881
3755.43364	0.99932
3753.38149	0.99944
3751.32934	0.99832
3749.27719	0.99742
3747.22504	0.99804
3745.17289	0.99899
3743.12074	0.99919
3741.06859	0.99895
3739.01645	0.99885
3736.96430	0.99892
3734.91215	0.99914
3732.86000	0.99908
3730.80785	0.99875
3728.75570	0.99869
3726.70355	0.99906
3724.65140	0.99941
3722.59925	0.99931
3720.54710	0.99888
3718.49495	0.99837
3716.44280	0.99808
3714.39065	0.99816
3712.33850	0.99841
3710.28635	0.99852
3708.23420	0.99850
3706.18205	0.99874
3704.12990	0.99937
3702.07775	0.99983
3700.02560	0.99956
3697.97345	0.99889
3695.92131	0.99826
3693.86916	0.99802
3691.81701	0.99804
3689.76486	0.99809
3687.71271	0.99811
3685.66056	0.99805
3683.60841	0.99801
3681.55626	0.99813
3679.50411	0.99835
3677.45196	0.99838
3675.39981	0.99803
3673.34766	0.99765
3671.29551	0.99759
3669.24336	0.99802
3667.19121	0.99864
3665.13906	0.99872
3663.08691	0.99838
3661.03476	0.99815
3658.98261	0.99798
3656.93046	0.99764
3654.87831	0.99739
3652.82617	0.99714
3650.77402	0.99635
3648.72187	0.99541
3646.66972	0.99536
3644.61757	0.99561
3642.56542	0.99563
3640.51327	0.99542
3638.46112	0.99506
3636.40897	0.99465
3634.35682	0.99431
3632.30467	0.99389
3630.25252	0.99332
3628.20037	0.99287
3626.14822	0.99283
3624.09607	0.99277
3622.04392	0.99259
3619.99177	0.99223
3617.93962	0.99132
3615.88747	0.99012
3613.83532	0.98916
3611.78317	0.98851
3609.73102	0.98775
3607.67888	0.98685
3605.62673	0.98636
3603.57458	0.98600
3601.52243	0.98538
3599.47028	0.98467
3597.41813	0.98402
3595.36598	0.98322
3593.31383	0.98228
3591.26168	0.98138
3589.20953	0.98031
3587.15738	0.97913
3585.10523	0.97832
3583.05308	0.97750
3581.00093	0.97631
3578.94878	0.97482
3576.89663	0.97319
3574.84448	0.97182
3572.79233	0.97066
3570.74018	0.96923
3568.68803	0.96763
3566.63588	0.96618
3564.58374	0.96488
3562.53159	0.96344
3560.47944	0.96184
3558.42729	0.96036
3556.37514	0.95899
3554.32299	0.95728
3552.27084	0.95515
3550.21869	0.95316
3548.16654	0.95121
3546.11439	0.94889
3544.06224	0.94688
3542.01009	0.94548
3539.95794	0.94388
3537.90579	0.94156
3535.85364	0.93881
3533.80149	0.93617
3531.74934	0.93367
3529.69719	0.93117
3527.64504	0.92886
3525.59289	0.92677
3523.54074	0.92448
3521.48860	0.92163
3519.43645	0.91848
3517.38430	0.91538
3515.33215	0.91267
3513.28000	0.91023
3511.22785	0.90756
3509.17570	0.90452
3507.12355	0.90155
3505.07140	0.89891
3503.01925	0.89614
3500.96710	0.89302
3498.91495	0.88975
3496.86280	0.88641
3494.81065	0.88318
3492.75850	0.88009
3490.70635	0.87704
3488.65420	0.87384
3486.60205	0.87038
3484.54990	0.86692
3482.49775	0.86343
3480.44560	0.85973
3478.39345	0.85620
3476.34131	0.85275
3474.28916	0.84904
3472.23701	0.84523
3470.18486	0.84159
3468.13271	0.83815
3466.08056	0.83485
3464.02841	0.83132
3461.97626	0.82747
3459.92411	0.82360
3457.87196	0.81976
3455.81981	0.81599
3453.76766	0.81222
3451.71551	0.80836
3449.66336	0.80465
3447.61121	0.80098
3445.55906	0.79701
3443.50691	0.79295
3441.45476	0.78896
3439.40261	0.78505
3437.35046	0.78126
3435.29831	0.77756
3433.24617	0.77388
3431.19402	0.77012
3429.14187	0.76619
3427.08972	0.76224
3425.03757	0.75853
3422.98542	0.75493
3420.93327	0.75117
3418.88112	0.74730
3416.82897	0.74354
3414.77682	0.73973
3412.72467	0.73574
3410.67252	0.73200
3408.62037	0.72858
3406.56822	0.72495
3404.51607	0.72105
3402.46392	0.71733
3400.41177	0.71384
3398.35962	0.71022
3396.30747	0.70638
3394.25532	0.70263
3392.20317	0.69902
3390.15103	0.69543
3388.09888	0.69175
3386.04673	0.68804
3383.99458	0.68444
3381.94243	0.68095
3379.89028	0.67736
3377.83813	0.67350
3375.78598	0.66966
3373.73383	0.66617
3371.68168	0.66295
3369.62953	0.65964
3367.57738	0.65624
3365.52523	0.65272
3363.47308	0.64929
3361.42093	0.64625
3359.36878	0.64334
3357.31663	0.64017
3355.26448	0.63690
3353.21233	0.63389
3351.16018	0.63106
3349.10803	0.62815
3347.05588	0.62522
3345.00374	0.62254
3342.95159	0.62008
3340.89944	0.61771
3338.84729	0.61539
3336.79514	0.61307
3334.74299	0.61075
3332.69084	0.60859
3330.63869	0.60663
3328.58654	0.60475
3326.53439	0.60289
3324.48224	0.60109
3322.43009	0.59927
3320.37794	0.59750
3318.32579	0.59612
3316.27364	0.59512
3314.22149	0.59430
3312.16934	0.59350
3310.11719	0.59254
3308.06504	0.59150
3306.01289	0.59071
3303.96074	0.59013
3301.90860	0.58950
3299.85645	0.58896
3297.80430	0.58867
3295.75215	0.58853
3293.70000	0.58848
3291.64785	0.58842
3289.59570	0.58835
3287.54355	0.58843
3285.49140	0.58861
3283.43925	0.58888
3281.38710	0.58928
3279.33495	0.58992
3277.28280	0.59094
3275.23065	0.59199
3273.17850	0.59283
3271.12635	0.59379
3269.07420	0.59480
3267.02205	0.59577
3264.96990	0.59679
3262.91775	0.59797
3260.86560	0.59951
3258.81346	0.60121
3256.76131	0.60298
3254.70916	0.60491
3252.65701	0.60681
3250.60486	0.60867
3248.55271	0.61070
3246.50056	0.61285
3244.44841	0.61493
3242.39626	0.61706
3240.34411	0.61952
3238.29196	0.62214
3236.23981	0.62466
3234.18766	0.62723
3232.13551	0.62992
3230.08336	0.63266
3228.03121	0.63555
3225.97906	0.63846
3223.92691	0.64128
3221.87476	0.64432
3219.82261	0.64773
3217.77046	0.65126
3215.71832	0.65474
3213.66617	0.65819
3211.61402	0.66174
3209.56187	0.66562
3207.50972	0.66960
3205.45757	0.67322
3203.40542	0.67675
3201.35327	0.68053
3199.30112	0.68461
3197.24897	0.68891
3195.19682	0.69308
3193.14467	0.69692
3191.09252	0.70076
3189.04037	0.70489
3186.98822	0.70920
3184.93607	0.71342
3182.88392	0.71755
3180.83177	0.72175
3178.77962	0.72599
3176.72747	0.73022
3174.67532	0.73434
3172.62317	0.73832
3170.57103	0.74229
3168.51888	0.74627
3166.46673	0.75046
3164.41458	0.75490
3162.36243	0.75923
3160.31028	0.76343
3158.25813	0.76767
3156.20598	0.77178
3154.15383	0.77560
3152.10168	0.77946
3150.04953	0.78351
3147.99738	0.78746
3145.94523	0.79126
3143.89308	0.79510
3141.84093	0.79898
3139.78878	0.80271
3137.73663	0.80621
3135.68448	0.80954
3133.63233	0.81294
3131.58018	0.81660
3129.52803	0.82041
3127.47589	0.82404
3125.42374	0.82727
3123.37159	0.83041
3121.31944	0.83376
3119.26729	0.83709
3117.21514	0.84043
3115.16299	0.84375
3113.11084	0.84651
3111.05869	0.84895
3109.00654	0.85171
3106.95439	0.85469
3104.90224	0.85759
3102.85009	0.86035
3100.79794	0.86311
3098.74579	0.86581
3096.69364	0.86829
3094.64149	0.87077
3092.58934	0.87338
3090.53719	0.87587
3088.48504	0.87828
3086.43289	0.88067
3084.38075	0.88282
3082.32860	0.88476
3080.27645	0.88677
3078.22430	0.88881
3076.17215	0.89084
3074.12000	0.89295
3072.06785	0.89493
3070.01570	0.89671
3067.96355	0.89839
3065.91140	0.90001
3063.85925	0.90168
3061.80710	0.90347
3059.75495	0.90521
3057.70280	0.90680
3055.65065	0.90829
3053.59850	0.90967
3051.54635	0.91111
3049.49420	0.91263
3047.44205	0.91399
3045.38990	0.91518
3043.33775	0.91633
3041.28560	0.91745
3039.23346	0.91856
3037.18131	0.91977
3035.12916	0.92099
3033.07701	0.92194
3031.02486	0.92270
3028.97271	0.92357
3026.92056	0.92445
3024.86841	0.92516
3022.81626	0.92592
3020.76411	0.92683
3018.71196	0.92764
3016.65981	0.92807
3014.60766	0.92820
3012.55551	0.92833
3010.50336	0.92847
3008.45121	0.92861
3006.39906	0.92877
3004.34691	0.92876
3002.29476	0.92854
3000.24261	0.92821
2998.19046	0.92756
2996.13832	0.92634
2994.08617	0.92478
2992.03402	0.92291
2989.98187	0.92032
2987.92972	0.91692
2985.87757	0.91268
2983.82542	0.90740
2981.77327	0.90093
2979.72112	0.89322
2977.66897	0.88419
2975.61682	0.87391
2973.56467	0.86265
2971.51252	0.85078
2969.46037	0.83872
2967.40822	0.82664
2965.35607	0.81468
2963.30392	0.80304
2961.25177	0.79170
2959.19962	0.78052
2957.14747	0.76945
2955.09532	0.75816
2953.04318	0.74685
2950.99103	0.73625
2948.93888	0.72675
2946.88673	0.71878
2944.83458	0.71318
2942.78243	0.71033
2940.73028	0.70983
2938.67813	0.71100
2936.62598	0.71307
2934.57383	0.71540
2932.52168	0.71817
2930.46953	0.72187
2928.41738	0.72653
2926.36523	0.73183
2924.31308	0.73751
2922.26093	0.74346
2920.20878	0.74953
2918.15663	0.75521
2916.10448	0.75993
2914.05233	0.76365
2912.00018	0.76678
2909.94803	0.76948
2907.89589	0.77150
2905.84374	0.77267
2903.79159	0.77284
2901.73944	0.77160
2899.68729	0.76855
2897.63514	0.76373
2895.58299	0.75738
2893.53084	0.74974
2891.47869	0.74118
2889.42654	0.73234
2887.37439	0.72408
2885.32224	0.71712
2883.27009	0.71203
2881.21794	0.70928
2879.16579	0.70910
2877.11364	0.71115
2875.06149	0.71486
2873.00934	0.71996
2870.95719	0.72638
2868.90504	0.73379
2866.85289	0.74186
2864.80075	0.75032
2862.74860	0.75861
2860.69645	0.76609
2858.64430	0.77267
2856.59215	0.77859
2854.54000	0.78420
2852.48785	0.78992
2850.43570	0.79591
2848.38355	0.80218
2846.33140	0.80876
2844.27925	0.81541
2842.22710	0.82170
2840.17495	0.82751
2838.12280	0.83292
2836.07065	0.83791
2834.01850	0.84258
2831.96635	0.84701
2829.91420	0.85116
2827.86205	0.85506
2825.80990	0.85909
2823.75775	0.86343
2821.70561	0.86774
2819.65346	0.87172
2817.60131	0.87553
2815.54916	0.87932
2813.49701	0.88295
2811.44486	0.88643
2809.39271	0.88981
2807.34056	0.89293
2805.28841	0.89579
2803.23626	0.89861
2801.18411	0.90135
2799.13196	0.90380
2797.07981	0.90593
2795.02766	0.90787
2792.97551	0.90962
2790.92336	0.91118
2788.87121	0.91272
2786.81906	0.91439
2784.76691	0.91607
2782.71476	0.91747
2780.66261	0.91849
2778.61046	0.91943
2776.55832	0.92044
2774.50617	0.92143
2772.45402	0.92236
2770.40187	0.92319
2768.34972	0.92388
2766.29757	0.92443
2764.24542	0.92504
2762.19327	0.92562
2760.14112	0.92600
2758.08897	0.92634
2756.03682	0.92676
2753.98467	0.92725
2751.93252	0.92784
2749.88037	0.92849
2747.82822	0.92912
2745.77607	0.92971
2743.72392	0.93031
2741.67177	0.93097
2739.61962	0.93155
2737.56747	0.93202
2735.51532	0.93258
2733.46318	0.93329
2731.41103	0.93399
2729.35888	0.93471
2727.30673	0.93537
2725.25458	0.93600
2723.20243	0.93691
2721.15028	0.93813
2719.09813	0.93937
2717.04598	0.94060
2714.99383	0.94189
2712.94168	0.94316
2710.88953	0.94442
2708.83738	0.94571
2706.78523	0.94686
2704.73308	0.94778
2702.68093	0.94861
2700.62878	0.94947
2698.57663	0.95030
2696.52448	0.95097
2694.47233	0.95158
2692.42018	0.95217
2690.36804	0.95267
2688.31589	0.95315
2686.26374	0.95371
2684.21159	0.95432
2682.15944	0.95495
2680.10729	0.95558
2678.05514	0.95618
2676.00299	0.95659
2673.95084	0.95683
2671.89869	0.95709
2669.84654	0.95738
2667.79439	0.95764
2665.74224	0.95784
2663.69009	0.95796
2661.63794	0.95810
2659.58579	0.95839
2657.53364	0.95875
2655.48149	0.95909
2653.42934	0.95942
2651.37719	0.95986
2649.32504	0.96027
2647.27289	0.96053
2645.22075	0.96075
2643.16860	0.96105
2641.11645	0.96145
2639.06430	0.96187
2637.01215	0.96223
2634.96000	0.96257
2632.90785	0.96294
2630.85570	0.96337
2628.80355	0.96387
2626.75140	0.96424
2624.69925	0.96444
2622.64710	0.96472
2620.59495	0.96516
2618.54280	0.96547
2616.49065	0.96569
2614.43850	0.96599
2612.38635	0.96633
2610.33420	0.96683
2608.28205	0.96740
2606.22990	0.96772
2604.17775	0.96797
2602.12561	0.96841
2600.07346	0.96893
2598.02131	0.96941
2595.96916	0.96977
2593.91701	0.96998
2591.86486	0.97034
2589.81271	0.97090
2587.76056	0.97142
2585.70841	0.97187
2583.65626	0.97251
2581.60411	0.97317
2579.55196	0.97338
2577.49981	0.97346
2575.44766	0.97378
2573.39551	0.97423
2571.34336	0.97442
2569.29121	0.97441
2567.23906	0.97465
2565.18691	0.97518
2563.13476	0.97555
2561.08261	0.97545
2559.03047	0.97520
2556.97832	0.97519
2554.92617	0.97526
2552.87402	0.97505
2550.82187	0.97500
2548.76972	0.97533
2546.71757	0.97546
2544.66542	0.97533
2542.61327	0.97546
2540.56112	0.97584
2538.50897	0.97607
2536.45682	0.97604
2534.40467	0.97599
2532.35252	0.97604
2530.30037	0.97615
2528.24822	0.97619
2526.19607	0.97609
2524.14392	0.97592
2522.09177	0.97578
2520.03962	0.97562
2517.98747	0.97557
2515.93532	0.97595
2513.88318	0.97662
2511.83103	0.97702
2509.77888	0.97704
2507.72673	0.97704
2505.67458	0.97703
2503.62243	0.97704
2501.57028	0.97730
2499.51813	0.97776
2497.46598	0.97802
2495.41383	0.97804
2493.36168	0.97831
2491.30953	0.97876
2489.25738	0.97900
2487.20523	0.97912
2485.15308	0.97932
2483.10093	0.97959
2481.04878	0.97995
2478.99663	0.98020
2476.94448	0.98038
2474.89233	0.98087
2472.84018	0.98146
2470.78804	0.98183
2468.73589	0.98220
2466.68374	0.98267
2464.63159	0.98289
2462.57944	0.98295
2460.52729	0.98340
2458.47514	0.98404
2456.42299	0.98442
2454.37084	0.98467
2452.31869	0.98489
2450.26654	0.98515
2448.21439	0.98558
2446.16224	0.98588
2444.11009	0.98588
2442.05794	0.98590
2440.00579	0.98597
2437.95364	0.98590
2435.90149	0.98578
2433.84934	0.98584
2431.79719	0.98587
2429.74504	0.98574
2427.69290	0.98566
2425.64075	0.98564
2423.58860	0.98573
2421.53645	0.98602
2419.48430	0.98636
2417.43215	0.98653
2415.38000	0.98655
2413.32785	0.98668
2411.27570	0.98689
2409.22355	0.98708
2407.17140	0.98732
2405.11925	0.98757
2403.06710	0.98755
2401.01495	0.98750
2398.96280	0.98763
2396.91065	0.98773
2394.85850	0.98792
2392.80635	0.98817
2390.75420	0.98821
2388.70205	0.98829
2386.64990	0.98861
2384.59775	0.98888
2382.54561	0.98891
2380.49346	0.98892
2378.44131	0.98919
2376.38916	0.98955
2374.33701	0.98953
2372.28486	0.98929
2370.23271	0.98957
2368.18056	0.99013
2366.12841	0.99004
2364.07626	0.98949
2362.02411	0.98947
2359.97196	0.99025
2357.91981	0.99079
2355.86766	0.99062
2353.81551	0.99049
2351.76336	0.99060
2349.71121	0.99069
2347.65906	0.99078
2345.60691	0.99075
2343.55476	0.99069
2341.50261	0.99095
2339.45047	0.99143
2337.39832	0.99192
2335.34617	0.99202
2333.29402	0.99160
2331.24187	0.99140
2329.18972	0.99162
2327.13757	0.99155
2325.08542	0.99127
2323.03327	0.99127
2320.98112	0.99161
2318.92897	0.99198
2316.87682	0.99192
2314.82467	0.99155
2312.77252	0.99135
2310.72037	0.99144
2308.66822	0.99172
2306.61607	0.99199
2304.56392	0.99200
2302.51177	0.99175
2300.45962	0.99173
2298.40747	0.99207
2296.35533	0.99223
2294.30318	0.99196
2292.25103	0.99186
2290.19888	0.99218
2288.14673	0.99225
2286.09458	0.99212
2284.04243	0.99255
2281.99028	0.99319
2279.93813	0.99330
2277.88598	0.99312
2275.83383	0.99308
2273.78168	0.99315
2271.72953	0.99328
2269.67738	0.99333
2267.62523	0.99317
2265.57308	0.99287
2263.52093	0.99256
2261.46878	0.99255
2259.41663	0.99264
2257.36448	0.99275
2255.31233	0.99343
2253.26018	0.99441
2251.20804	0.99486
2249.15589	0.99514
2247.10374	0.99580
2245.05159	0.99603
2242.99944	0.99530
2240.94729	0.99432
2238.89514	0.99386
2236.84299	0.99432
2234.79084	0.99518
2232.73869	0.99581
2230.68654	0.99582
2228.63439	0.99510
2226.58224	0.99473
2224.53009	0.99487
2222.47794	0.99489
2220.42579	0.99468
2218.37364	0.99414
2216.32149	0.99366
2214.26934	0.99376
2212.21719	0.99444
2210.16504	0.99509
2208.11290	0.99494
2206.06075	0.99419
2204.00860	0.99347
2201.95645	0.99317
2199.90430	0.99343
2197.85215	0.99463
2195.80000	0.99668
2193.74785	0.99792
2191.69570	0.99757
2189.64355	0.99677
2187.59140	0.99664
2185.53925	0.99698
2183.48710	0.99674
2181.43495	0.99605
2179.38280	0.99560
2177.33065	0.99558
2175.27850	0.99618
2173.22635	0.99646
2171.17420	0.99597
2169.12205	0.99573
2167.06990	0.99596
2165.01776	0.99636
2162.96561	0.99679
2160.91346	0.99728
2158.86131	0.99805
2156.80916	0.99821
2154.75701	0.99708
2152.70486	0.99620
2150.65271	0.99644
2148.60056	0.99638
2146.54841	0.99626
2144.49626	0.99679
2142.44411	0.99704
2140.39196	0.99663
2138.33981	0.99578
2136.28766	0.99494
2134.23551	0.99478
2132.18336	0.99516
2130.13121	0.99521
2128.07906	0.99480
2126.02691	0.99465
2123.97476	0.99466
2121.92262	0.99451
2119.87047	0.99456
2117.81832	0.99476
2115.76617	0.99485
2113.71402	0.99496
2111.66187	0.99492
2109.60972	0.99470
2107.55757	0.99481
2105.50542	0.99526
2103.45327	0.99545
2101.40112	0.99507
2099.34897	0.99443
2097.29682	0.99429
2095.24467	0.99482
2093.19252	0.99508
2091.14037	0.99461
2089.08822	0.99431
2087.03607	0.99456
2084.98392	0.99469
2082.93177	0.99468
2080.87962	0.99463
2078.82747	0.99446
2076.77533	0.99424
2074.72318	0.99422
2072.67103	0.99456
2070.61888	0.99510
2068.56673	0.99516
2066.51458	0.99444
2064.46243	0.99366
2062.41028	0.99328
2060.35813	0.99337
2058.30598	0.99372
2056.25383	0.99397
2054.20168	0.99412
2052.14953	0.99371
2050.09738	0.99291
2048.04523	0.99291
2045.99308	0.99380
2043.94093	0.99451
2041.88878	0.99514
2039.83663	0.99627
2037.78448	0.99776
2035.73233	0.99916
2033.68019	0.99966
2031.62804	0.99946
2029.57589	0.99877
2027.52374	0.99739
2025.47159	0.99624
2023.41944	0.99646
2021.36729	0.99752
2019.31514	0.99732
2017.26299	0.99513
2015.21084	0.99356
2013.15869	0.99409
2011.10654	0.99530
2009.05439	0.99620
2007.00224	0.99668
2004.95009	0.99660
2002.89794	0.99638
2000.84579	0.99632
1998.79364	0.99624
1996.74149	0.99677
1994.68934	0.99780
1992.63719	0.99740
1990.58505	0.99578
1988.53290	0.99520
1986.48075	0.99564
1984.42860	0.99651
1982.37645	0.99774
1980.32430	0.99852
1978.27215	0.99790
1976.22000	0.99621
1974.16785	0.99502
1972.11570	0.99478
1970.06355	0.99504
1968.01140	0.99615
1965.95925	0.99784
1963.90710	0.99837
1961.85495	0.99806
1959.80280	0.99830
1957.75065	0.99807
1955.69850	0.99754
1953.64635	0.99804
1951.59420	0.99838
1949.54205	0.99788
1947.48990	0.99706
1945.43776	0.99629
1943.38561	0.99629
1941.33346	0.99673
1939.28131	0.99676
1937.22916	0.99640
1935.17701	0.99575
1933.12486	0.99516
1931.07271	0.99526
1929.02056	0.99609
1926.96841	0.99688
1924.91626	0.99671
1922.86411	0.99530
1920.81196	0.99424
1918.75981	0.99498
1916.70766	0.99631
1914.65551	0.99664
1912.60336	0.99636
1910.55121	0.99612
1908.49906	0.99615
1906.44691	0.99674
1904.39476	0.99749
1902.34262	0.99774
1900.29047	0.99778
1898.23832	0.99795
1896.18617	0.99777
1894.13402	0.99740
1892.08187	0.99759
1890.02972	0.99809
1887.97757	0.99834
1885.92542	0.99829
1883.87327	0.99820
1881.82112	0.99820
1879.76897	0.99810
1877.71682	0.99806
1875.66467	0.99831
1873.61252	0.99854
1871.56037	0.99857
1869.50822	0.99832
1867.45607	0.99793
1865.40392	0.99787
1863.35177	0.99802
1861.29962	0.99804
1859.24748	0.99812
1857.19533	0.99839
1855.14318	0.99834
1853.09103	0.99812
1851.03888	0.99813
1848.98673	0.99814
1846.93458	0.99813
1844.88243	0.99824
1842.83028	0.99836
1840.77813	0.99842
1838.72598	0.99846
1836.67383	0.99849
1834.62168	0.99850
1832.56953	0.99834
1830.51738	0.99814
1828.46523	0.99833
1826.41308	0.99873
1824.36093	0.99887
1822.30878	0.99883
1820.25663	0.99899
1818.20448	0.99930
1816.15233	0.99952
1814.10019	0.99964
1812.04804	0.99967
1809.99589	0.99967
1807.94374	0.99980
1805.89159	0.99983
1803.83944	0.99953
1801.78729	0.99917
1799.73514	0.99923
1797.68299	0.99967
1795.63084	0.99991
1793.57869	0.99975
1791.52654	0.99970
1789.47439	0.99993
1787.42224	1.00000
1785.37009	0.99988
1783.31794	0.99975
1781.26579	0.99963
1779.21364	0.99954
1777.16149	0.99951
1775.10934	0.99957
1773.05719	0.99949
1771.00505	0.99925
1768.95290	0.99931
1766.90075	0.99957
1764.84860	0.99974
1762.79645	0.99978
1760.74430	0.99977
1758.69215	0.99981
1756.64000	0.99989
1754.58785	0.99986
1752.53570	0.99957
1750.48355	0.99914
1748.43140	0.99903
1746.37925	0.99922
1744.32710	0.99938
1742.27495	0.99942
1740.22280	0.99948
1738.17065	0.99954
1736.11850	0.99935
1734.06635	0.99886
1732.01420	0.99870
1729.96205	0.99898
1727.90991	0.99934
1725.85776	0.99963
1723.80561	0.99979
1721.75346	0.99967
1719.70131	0.99936
1717.64916	0.99897
1715.59701	0.99870
1713.54486	0.99871
1711.49271	0.99885
1709.44056	0.99902
1707.38841	0.99913
1705.33626	0.99907
1703.28411	0.99905
1701.23196	0.99917
1699.17981	0.99927
1697.12766	0.99916
1695.07551	0.99895
1693.02336	0.99909
1690.97121	0.99933
1688.91906	0.99932
1686.86691	0.99922
1684.81476	0.99905
1682.76262	0.99880
1680.71047	0.99879
1678.65832	0.99879
1676.60617	0.99872
1674.55402	0.99879
1672.50187	0.99901
1670.44972	0.99899
1668.39757	0.99874
1666.34542	0.99865
1664.29327	0.99866
1662.24112	0.99867
1660.18897	0.99880
1658.13682	0.99894
1656.08467	0.99895
1654.03252	0.99887
1651.98037	0.99879
1649.92822	0.99872
1647.87607	0.99871
1645.82392	0.99898
1643.77177	0.99931
1641.71962	0.99940
1639.66748	0.99933
1637.61533	0.99917
1635.56318	0.99902
1633.51103	0.99914
1631.45888	0.99941
1629.40673	0.99970
1627.35458	0.99979
1625.30243	0.99959
1623.25028	0.99940
1621.19813	0.99946
1619.14598	0.99958
1617.09383	0.99958
1615.04168	0.99962
1612.98953	0.99973
1610.93738	0.99976
1608.88523	0.99966
1606.83308	0.99948
1604.78093	0.99929
1602.72878	0.99918
1600.67663	0.99922
1598.62448	0.99931
1596.57234	0.99925
1594.52019	0.99909
1592.46804	0.99885
1590.41589	0.99861
1588.36374	0.99851
1586.31159	0.99853
1584.25944	0.99844
1582.20729	0.99828
1580.15514	0.99809
1578.10299	0.99768
1576.05084	0.99703
1573.99869	0.99670
1571.94654	0.99657
1569.89439	0.99621
1567.84224	0.99598
1565.79009	0.99596
1563.73794	0.99585
1561.68579	0.99561
1559.63364	0.99506
1557.58149	0.99440
1555.52934	0.99427
1553.47719	0.99399
1551.42505	0.99359
1549.37290	0.99330
1547.32075	0.99300
1545.26860	0.99251
1543.21645	0.99189
1541.16430	0.99131
1539.11215	0.99034
1537.06000	0.98972
1535.00785	0.98933
1532.95570	0.98868
1530.90355	0.98797
1528.85140	0.98745
1526.79925	0.98674
1524.74710	0.98579
1522.69495	0.98461
1520.64280	0.98310
1518.59065	0.98183
1516.53850	0.98022
1514.48635	0.97846
1512.43420	0.97695
1510.38205	0.97554
1508.32991	0.97348
1506.27776	0.96937
1504.22561	0.96612
1502.17346	0.96398
1500.12131	0.96121
1498.06916	0.95678
1496.01701	0.95040
1493.96486	0.94416
1491.91271	0.93742
1489.86056	0.92618
1487.80841	0.91138
1485.75626	0.89782
1483.70411	0.88547
1481.65196	0.87343
1479.59981	0.86318
1477.54766	0.85623
1475.49551	0.85204
1473.44336	0.85059
1471.39121	0.85218
1469.33906	0.85541
1467.28691	0.85893
1465.23477	0.86224
1463.18262	0.86386
1461.13047	0.86352
1459.07832	0.86124
1457.02617	0.85540
1454.97402	0.84938
1452.92187	0.84552
1450.86972	0.84177
1448.81757	0.83735
1446.76542	0.83209
1444.71327	0.82673
1442.66112	0.82164
1440.60897	0.81728
1438.55682	0.81429
1436.50467	0.81234
1434.45252	0.81140
1432.40037	0.81019
1430.34822	0.80690
1428.29607	0.80183
1426.24392	0.79673
1424.19177	0.79181
1422.13962	0.78833
1420.08748	0.78733
1418.03533	0.78862
1415.98318	0.79159
1413.93103	0.79545
1411.87888	0.80016
1409.82673	0.80536
1407.77458	0.81045
1405.72243	0.81573
1403.67028	0.82130
1401.61813	0.82623
1399.56598	0.83062
1397.51383	0.83443
1395.46168	0.83674
1393.40953	0.83733
1391.35738	0.83663
1389.30523	0.83484
1387.25308	0.83200
1385.20093	0.82934
1383.14878	0.82765
1381.09663	0.82609
1379.04448	0.82408
1376.99234	0.82201
1374.94019	0.82052
1372.88804	0.82030
1370.83589	0.82161
1368.78374	0.82380
1366.73159	0.82585
1364.67944	0.82696
1362.62729	0.82685
1360.57514	0.82567
1358.52299	0.82399
1356.47084	0.82242
1354.41869	0.82173
1352.36654	0.82259
1350.31439	0.82466
1348.26224	0.82704
1346.21009	0.82911
1344.15794	0.83071
1342.10579	0.83216
1340.05364	0.83380
1338.00149	0.83567
1335.94934	0.83776
1333.89720	0.84020
1331.84505	0.84296
1329.79290	0.84580
1327.74075	0.84858
1325.68860	0.85145
1323.63645	0.85431
1321.58430	0.85673
1319.53215	0.85876
1317.48000	0.86083
1315.42785	0.86322
1313.37570	0.86612
1311.32355	0.86958
1309.27140	0.87343
1307.21925	0.87760
1305.16710	0.88199
1303.11495	0.88603
1301.06280	0.88894
1299.01065	0.89033
1296.95850	0.89052
1294.90635	0.89015
1292.85420	0.88979
1290.80205	0.88995
1288.74991	0.89103
1286.69776	0.89345
1284.64561	0.89754
1282.59346	0.90300
1280.54131	0.90928
1278.48916	0.91586
1276.43701	0.92214
1274.38486	0.92767
1272.33271	0.93252
1270.28056	0.93689
1268.22841	0.94071
1266.17626	0.94379
1264.12411	0.94612
1262.07196	0.94793
1260.01981	0.94925
1257.96766	0.94993
1255.91551	0.95003
1253.86336	0.94959
1251.81121	0.94872
1249.75906	0.94746
1247.70691	0.94554
1245.65477	0.94286
1243.60262	0.93963
1241.55047	0.93614
1239.49832	0.93282
1237.44617	0.92999
1235.39402	0.92788
1233.34187	0.92668
1231.28972	0.92637
1229.23757	0.92695
1227.18542	0.92843
1225.13327	0.93043
1223.08112	0.93252
1221.02897	0.93461
1218.97682	0.93672
1216.92467	0.93877
1214.87252	0.94062
1212.82037	0.94216
1210.76822	0.94319
1208.71607	0.94343
1206.66392	0.94273
1204.61177	0.94117
1202.55963	0.93885
1200.50748	0.93585
1198.45533	0.93256
1196.40318	0.92909
1194.35103	0.92531
1192.29888	0.92167
1190.24673	0.91856
1188.19458	0.91604
1186.14243	0.91435
1184.09028	0.91384
1182.03813	0.91473
1179.98598	0.91705
1177.93383	0.92077
1175.88168	0.92584
1173.82953	0.93183
1171.77738	0.93831
1169.72523	0.94527
1167.67308	0.95254
1165.62093	0.95958
1163.56878	0.96607
1161.51663	0.97195
1159.46448	0.97703
1157.41234	0.98131
1155.36019	0.98496
1153.30804	0.98810
1151.25589	0.99079
1149.20374	0.99299
1147.15159	0.99481
1145.09944	0.99643
1143.04729	0.99772
1140.99514	0.99857
1138.94299	0.99914
1136.89084	0.99957
1134.83869	1.00000
1132.78654	1.00000
1130.73439	0.99963
1128.68224	0.99901
1126.63009	0.99789
1124.57794	0.99615
1122.52579	0.99377
1120.47364	0.99068
1118.42149	0.98694
1116.36934	0.98271
1114.31720	0.97793
1112.26505	0.97217
1110.21290	0.96489
1108.16075	0.95584
1106.10860	0.94495
1104.05645	0.93247
1102.00430	0.91896
1099.95215	0.90498
1097.90000	0.89153
1095.84785	0.87953
1093.79570	0.86856
1091.74355	0.85683
1089.69140	0.84189
1087.63925	0.82159
1085.58710	0.79515
1083.53495	0.76298
1081.48280	0.72623
1079.43065	0.68675
1077.37850	0.64658
1075.32635	0.60685
1073.27420	0.56735
1071.22206	0.52764
1069.16991	0.48775
1067.11776	0.44810
1065.06561	0.40980
1063.01346	0.37497
1060.96131	0.34602
1058.90916	0.32481
1056.85701	0.31240
1054.80486	0.30912
1052.75271	0.31394
1050.70056	0.32444
1048.64841	0.33800
1046.59626	0.35237
1044.54411	0.36490
1042.49196	0.37266
1040.43981	0.37411
1038.38766	0.37027
1036.33551	0.36457
1034.28336	0.36143
1032.23121	0.36513
1030.17906	0.37899
1028.12692	0.40462
1026.07477	0.44155
1024.02262	0.48730
1021.97047	0.53831
1019.91832	0.59095
1017.86617	0.64270
1015.81402	0.69248
1013.76187	0.73918
1011.70972	0.78105
1009.65757	0.81626
1007.60542	0.84344
1005.55327	0.86225
1003.50112	0.87215
1001.44897	0.87157
999.39682	0.85921
997.34467	0.83448
995.29252	0.79742
993.24037	0.75057
991.18822	0.69940
989.13607	0.65055
987.08392	0.61074
985.03177	0.58585
982.97963	0.58013
980.92748	0.59566
978.87533	0.63153
976.82318	0.68324
974.77103	0.74280
972.71888	0.80103
970.66673	0.85096
968.61458	0.88941
966.56243	0.91691
964.51028	0.93548
962.45813	0.94688
960.40598	0.95275
958.35383	0.95360
956.30168	0.94853
954.24953	0.93624
952.19738	0.91532
950.14523	0.88524
948.09308	0.84773
946.04093	0.80736
943.98878	0.77074
941.93663	0.74405
939.88449	0.73034
937.83234	0.72884
935.78019	0.73568
933.72804	0.74420
931.67589	0.74720
929.62374	0.74065
927.57159	0.72510
925.51944	0.70465
923.46729	0.68501
921.41514	0.67184
919.36299	0.66979
917.31084	0.68142
915.25869	0.70668
913.20654	0.74306
911.15439	0.78602
909.10224	0.82991
907.05009	0.87008
904.99794	0.90421
902.94579	0.93172
900.89364	0.95291
898.84149	0.96856
896.78935	0.97967
894.73720	0.98746
892.68505	0.99284
890.63290	0.99643
888.58075	0.99876
886.52860	0.99971
884.47645	0.99897
882.42430	0.99630
880.37215	0.99175
878.32000	0.98516
876.26785	0.97738
874.21570	0.96982
872.16355	0.96343
870.11140	0.95934
868.05925	0.95898
866.00710	0.96300
863.95495	0.97034
861.90280	0.97879
859.85065	0.98577
857.79850	0.98992
855.74635	0.99151
853.69420	0.99106
851.64206	0.98933
849.58991	0.98764
847.53776	0.98730
845.48561	0.98857
843.43346	0.99043
841.38131	0.99196
839.32916	0.99303
837.27701	0.99345
835.22486	0.99292
833.17271	0.99137
831.12056	0.98883
829.06841	0.98546
827.01626	0.98166
824.96411	0.97713
822.91196	0.97166
820.85981	0.96619
818.80766	0.96116
816.75551	0.95660
814.70336	0.95308
812.65121	0.95048
810.59906	0.94785
808.54692	0.94480
806.49477	0.94129
804.44262	0.93737
802.39047	0.93331
800.33832	0.92866
798.28617	0.92294
796.23402	0.91651
794.18187	0.91001
792.12972	0.90377
790.07757	0.89754
788.02542	0.89114
785.97327	0.88507
783.92112	0.88005
781.86897	0.87673
779.81682	0.87541
777.76467	0.87630
775.71252	0.87955
773.66037	0.88391
771.60822	0.88773
769.55607	0.89066
767.50392	0.89256
765.45178	0.89308
763.39963	0.89247
761.34748	0.89102
759.29533	0.88915
757.24318	0.88740
755.19103	0.88551
753.13888	0.88288
751.08673	0.87993
749.03458	0.87730
746.98243	0.87444
744.93028	0.87093
742.87813	0.86738
740.82598	0.86402
738.77383	0.86052
736.72168	0.85705
734.66953	0.85351
732.61738	0.84935
730.56523	0.84497
728.51308	0.84105
726.46093	0.83743
724.40878	0.83386
722.35663	0.83021
720.30449	0.82638
718.25234	0.82266
716.20019	0.81898
714.14804	0.81518
712.09589	0.81156
710.04374	0.80817
707.99159	0.80455
705.93944	0.80063
703.88729	0.79666
701.83514	0.79271
699.78299	0.78881
697.73084	0.78502
695.67869	0.78169
693.62654	0.77868
691.57439	0.77569
689.52224	0.77310
687.47009	0.77081
685.41794	0.76794
683.36579	0.76440
681.31364	0.76082
679.26149	0.75724
677.20935	0.75373
675.15720	0.75111
673.10505	0.74937
671.05290	0.74809
669.00075	0.74624
666.94860	0.74277
664.89645	0.73984
662.84430	0.73747
660.79215	0.73490
658.74000	0.73290
656.68785	0.73157
654.63570	0.73029
652.58355	0.72906
650.53140	0.72788
648.47925	0.72651
646.42710	0.72487
644.37495	0.72311
642.32280	0.72155
640.27065	0.72029
638.21850	0.71937
636.16635	0.71876
634.11421	0.71849
632.06206	0.71852
630.00991	0.71852
627.95776	0.71842
625.90561	0.71831
623.85346	0.71819
621.80131	0.71806
619.74916	0.71804
617.69701	0.71882
615.64486	0.72071
613.59271	0.72263
611.54056	0.72386
609.48841	0.72491
607.43626	0.72643
605.38411	0.72835
603.33196	0.73004
601.27981	0.73150
599.22766	0.73302
597.17551	0.73471
595.12336	0.73679
593.07121	0.73911
591.01906	0.74155
588.96692	0.74433
586.91477	0.74719
584.86262	0.74999
582.81047	0.75292
580.75832	0.75621
578.70617	0.75978
576.65402	0.76331
574.60187	0.76706
572.54972	0.77157
570.49757	0.77622
568.44542	0.78028
566.39327	0.78418
564.34112	0.78841
562.28897	0.79292
560.23682	0.79699
558.18467	0.80015
556.13252	0.80348
554.08037	0.80772
552.02822	0.81159
549.97607	0.81420
547.92392	0.81592
545.87178	0.81574
543.81963	0.81280
541.76748	0.80810
539.71533	0.80107
537.66318	0.79027
535.61103	0.77537
533.55888	0.75556
531.50673	0.73204
529.45458	0.71088
527.40243	0.69714
525.35028	0.69307
523.29813	0.69939
521.24598	0.71407
519.19383	0.73491
517.14168	0.75890
515.08953	0.78087
513.03738	0.79797
510.98523	0.81198
508.93308	0.82432
506.88093	0.83485
504.82878	0.84416
502.77664	0.85384
500.72449	0.86344
498.67234	0.87151
496.62019	0.87733
494.56804	0.88110
492.51589	0.88467
490.46374	0.88698
488.41159	0.88638
486.35944	0.88506
484.30729	0.88569
482.25514	0.88796
480.20299	0.89064
478.15084	0.89519
476.09869	0.90263
474.04654	0.91128
471.99439	0.92123
469.94224	0.93228
467.89009	0.94248
465.83794	0.95136
463.78579	0.95757
461.73364	0.96129
459.68149	0.96515
457.62935	0.96880
455.57720	0.96884
453.52505	0.96632
451.47290	0.96482
449.42075	0.96468
447.36860	0.96300
445.31645	0.95932
443.26430	0.95612
441.21215	0.95329
439.16000	0.94924
437.10785	0.94518
435.05570	0.94305
433.00355	0.94288
430.95140	0.94425
428.89925	0.94686
426.84710	0.95022
424.79495	0.95495
422.74280	0.95866
420.69065	0.95958
418.63850	0.96229
416.58635	0.96728
414.53421	0.96952
412.48206	0.97140
410.42991	0.97688
408.37776	0.98268
406.32561	0.98488
404.27346	0.98614
402.22131	0.98960
400.16916	0.99535
398.11701	1.00000
