3997.58729	1.00005
3995.53514	1.00004
3993.48299	1.00016
3991.43084	1.00023
3989.37869	1.00032
3987.32654	1.00046
3985.27439	1.00055
3983.22224	1.00036
3981.17009	1.00007
3979.11794	0.99990
3977.06579	0.99981
3975.01364	0.99979
3972.96149	0.99985
3970.90934	0.99997
3968.85719	0.99994
3966.80504	0.99968
3964.75289	0.99960
3962.70074	0.99984
3960.64859	1.00004
3958.59645	1.00000
3956.54430	0.99980
3954.49215	0.99961
3952.44000	0.99953
3950.38785	0.99952
3948.33570	0.99941
3946.28355	0.99917
3944.23140	0.99910
3942.17925	0.99913
3940.12710	0.99917
3938.07495	0.99922
3936.02280	0.99932
3933.97065	0.99972
3931.91850	1.00007
3929.86635	0.99983
3927.81420	0.99952
3925.76205	0.99958
3923.70990	0.99983
3921.65775	0.99992
3919.60560	0.99989
3917.55345	0.99976
3915.50131	0.99935
3913.44916	0.99895
3911.39701	0.99895
3909.34486	0.99910
3907.29271	0.99917
3905.24056	0.99922
3903.18841	0.99941
3901.13626	0.99977
3899.08411	1.00000
3897.03196	0.99981
3894.97981	0.99955
3892.92766	0.99965
3890.87551	0.99956
3888.82336	0.99921
3886.77121	0.99931
3884.71906	0.99945
3882.66691	0.99940
3880.61476	0.99934
3878.56261	0.99880
3876.51046	0.99840
3874.45831	0.99859
3872.40616	0.99892
3870.35402	0.99915
3868.30187	0.99930
3866.24972	0.99937
3864.19757	0.99918
3862.14542	0.99860
3860.09327	0.99804
3858.04112	0.99805
3855.98897	0.99888
3853.93682	1.00000
3851.88467	0.99980
3849.83252	0.99889
3847.78037	0.99834
3845.72822	0.99824
3843.67607	0.99864
3841.62392	0.99905
3839.57177	0.99903
3837.51962	0.99867
3835.46747	0.99829
3833.41532	0.99817
3831.36317	0.99813
3829.31102	0.99812
3827.25888	0.99831
3825.20673	0.99854
3823.15458	0.99889
3821.10243	0.99928
3819.05028	0.99909
3816.99813	0.99876
3814.94598	0.99829
3812.89383	0.99759
3810.84168	0.99729
3808.78953	0.99773
3806.73738	0.99838
3804.68523	0.99859
3802.63308	0.99868
3800.58093	0.99849
3798.52878	0.99803
3796.47663	0.99780
3794.42448	0.99768
3792.37233	0.99747
3790.32018	0.99736
3788.26803	0.99750
3786.21588	0.99766
3784.16374	0.99759
3782.11159	0.99740
3780.05944	0.99727
3778.00729	0.99710
3775.95514	0.99709
3773.90299	0.99737
3771.85084	0.99780
3769.79869	0.99829
3767.74654	0.99850
3765.69439	0.99828
3763.64224	0.99793
3761.59009	0.99792
3759.53794	0.99807
3757.48579	0.99788
3755.43364	0.99789
3753.38149	0.99863
3751.32934	0.99949
3749.27719	0.99962
3747.22504	0.99969
3745.17289	1.00000
3743.12074	0.99988
3741.06859	0.99937
3739.01645	0.99908
3736.96430	0.99927
3734.91215	0.99958
3732.86000	0.99912
3730.80785	0.99811
3728.75570	0.99724
3726.70355	0.99707
3724.65140	0.99747
3722.59925	0.99766
3720.54710	0.99765
3718.49495	0.99757
3716.44280	0.99744
3714.39065	0.99762
3712.33850	0.99799
3710.28635	0.99762
3708.23420	0.99674
3706.18205	0.99628
3704.12990	0.99638
3702.07775	0.99690
3700.02560	0.99725
3697.97345	0.99706
3695.92131	0.99668
3693.86916	0.99669
3691.81701	0.99728
3689.76486	0.99791
3687.71271	0.99786
3685.66056	0.99729
3683.60841	0.99680
3681.55626	0.99663
3679.50411	0.99657
3677.45196	0.99651
3675.39981	0.99620
3673.34766	0.99580
3671.29551	0.99603
3669.24336	0.99609
3667.19121	0.99546
3665.13906	0.99509
3663.08691	0.99490
3661.03476	0.99458
3658.98261	0.99447
3656.93046	0.99456
3654.87831	0.99453
3652.82617	0.99486
3650.77402	0.99574
3648.72187	0.99573
3646.66972	0.99431
3644.61757	0.99329
3642.56542	0.99283
3640.51327	0.99250
3638.46112	0.99211
3636.40897	0.99182
3634.35682	0.99167
3632.30467	0.99184
3630.25252	0.99219
3628.20037	0.99146
3626.14822	0.98981
3624.09607	0.98879
3622.04392	0.98873
3619.99177	0.98918
3617.93962	0.98885
3615.88747	0.98774
3613.83532	0.98674
3611.78317	0.98601
3609.73102	0.98544
3607.67888	0.98457
3605.62673	0.98334
3603.57458	0.98244
3601.52243	0.98200
3599.47028	0.98144
3597.41813	0.98038
3595.36598	0.97900
3593.31383	0.97761
3591.26168	0.97676
3589.20953	0.97654
3587.15738	0.97592
3585.10523	0.97432
3583.05308	0.97291
3581.00093	0.97179
3578.94878	0.97034
3576.89663	0.96873
3574.84448	0.96741
3572.79233	0.96627
3570.74018	0.96521
3568.68803	0.96422
3566.63588	0.96280
3564.58374	0.96075
3562.53159	0.95860
3560.47944	0.95663
3558.42729	0.95492
3556.37514	0.95344
3554.32299	0.95205
3552.27084	0.95025
3550.21869	0.94815
3548.16654	0.94631
3546.11439	0.94442
3544.06224	0.94207
3542.01009	0.93970
3539.95794	0.93741
3537.90579	0.93491
3535.85364	0.93242
3533.80149	0.93028
3531.74934	0.92830
3529.69719	0.92614
3527.64504	0.92375
3525.59289	0.92128
3523.54074	0.91852
3521.48860	0.91541
3519.43645	0.91248
3517.38430	0.90959
3515.33215	0.90657
3513.28000	0.90362
3511.22785	0.90071
3509.17570	0.89780
3507.12355	0.89506
3505.07140	0.89245
3503.01925	0.88949
3500.96710	0.88620
3498.91495	0.88299
3496.86280	0.87970
3494.81065	0.87629
3492.75850	0.87316
3490.70635	0.87027
3488.65420	0.86716
3486.60205	0.86375
3484.54990	0.86040
3482.49775	0.85719
3480.44560	0.85385
3478.39345	0.85032
3476.34131	0.84698
3474.28916	0.84383
3472.23701	0.84047
3470.18486	0.83691
3468.13271	0.83333
3466.08056	0.82977
3464.02841	0.82622
3461.97626	0.82263
3459.92411	0.81902
3457.87196	0.81555
3455.81981	0.81217
3453.76766	0.80873
3451.71551	0.80527
3449.66336	0.80179
3447.61121	0.79820
3445.55906	0.79461
3443.50691	0.79133
3441.45476	0.78799
3439.40261	0.78436
3437.35046	0.78064
3435.29831	0.77707
3433.24617	0.77385
3431.19402	0.77077
3429.14187	0.76755
3427.08972	0.76408
3425.03757	0.76052
3422.98542	0.75711
3420.93327	0.75375
3418.88112	0.75026
3416.82897	0.74680
3414.77682	0.74346
3412.72467	0.74021
3410.67252	0.73698
3408.62037	0.73378
3406.56822	0.73064
3404.51607	0.72759
3402.46392	0.72460
3400.41177	0.72157
3398.35962	0.71842
3396.30747	0.71519
3394.25532	0.71199
3392.20317	0.70886
3390.15103	0.70578
3388.09888	0.70271
3386.04673	0.69972
3383.99458	0.69688
3381.94243	0.69408
3379.89028	0.69122
3377.83813	0.68829
3375.78598	0.68542
3373.73383	0.68270
3371.68168	0.68012
3369.62953	0.67750
3367.57738	0.67469
3365.52523	0.67177
3363.47308	0.66920
3361.42093	0.66699
3359.36878	0.66459
3357.31663	0.66201
3355.26448	0.65978
3353.21233	0.65791
3351.16018	0.65595
3349.10803	0.65379
3347.05588	0.65167
3345.00374	0.64982
3342.95159	0.64805
3340.89944	0.64626
3338.84729	0.64463
3336.79514	0.64310
3334.74299	0.64156
3332.69084	0.64005
3330.63869	0.63870
3328.58654	0.63754
3326.53439	0.63651
3324.48224	0.63564
3322.43009	0.63483
3320.37794	0.63398
3318.32579	0.63328
3316.27364	0.63275
3314.22149	0.63226
3312.16934	0.63195
3310.11719	0.63208
3308.06504	0.63234
3306.01289	0.63222
3303.96074	0.63171
3301.90860	0.63130
3299.85645	0.63146
3297.80430	0.63186
3295.75215	0.63216
3293.70000	0.63269
3291.64785	0.63329
3289.59570	0.63362
3287.54355	0.63400
3285.49140	0.63463
3283.43925	0.63543
3281.38710	0.63650
3279.33495	0.63776
3277.28280	0.63908
3275.23065	0.64048
3273.17850	0.64196
3271.12635	0.64336
3269.07420	0.64459
3267.02205	0.64584
3264.96990	0.64737
3262.91775	0.64906
3260.86560	0.65087
3258.81346	0.65284
3256.76131	0.65494
3254.70916	0.65697
3252.65701	0.65892
3250.60486	0.66103
3248.55271	0.66337
3246.50056	0.66575
3244.44841	0.66815
3242.39626	0.67064
3240.34411	0.67308
3238.29196	0.67560
3236.23981	0.67846
3234.18766	0.68145
3232.13551	0.68436
3230.08336	0.68730
3228.03121	0.69026
3225.97906	0.69322
3223.92691	0.69630
3221.87476	0.69945
3219.82261	0.70264
3217.77046	0.70598
3215.71832	0.70938
3213.66617	0.71289
3211.61402	0.71657
3209.56187	0.71999
3207.50972	0.72308
3205.45757	0.72637
3203.40542	0.73003
3201.35327	0.73361
3199.30112	0.73713
3197.24897	0.74096
3195.19682	0.74493
3193.14467	0.74867
3191.09252	0.75217
3189.04037	0.75566
3186.98822	0.75936
3184.93607	0.76331
3182.88392	0.76736
3180.83177	0.77129
3178.77962	0.77501
3176.72747	0.77854
3174.67532	0.78202
3172.62317	0.78552
3170.57103	0.78902
3168.51888	0.79246
3166.46673	0.79602
3164.41458	0.79970
3162.36243	0.80332
3160.31028	0.80692
3158.25813	0.81038
3156.20598	0.81354
3154.15383	0.81673
3152.10168	0.82027
3150.04953	0.82378
3147.99738	0.82700
3145.94523	0.83021
3143.89308	0.83340
3141.84093	0.83638
3139.78878	0.83930
3137.73663	0.84224
3135.68448	0.84511
3133.63233	0.84806
3131.58018	0.85105
3129.52803	0.85389
3127.47589	0.85650
3125.42374	0.85915
3123.37159	0.86206
3121.31944	0.86493
3119.26729	0.86762
3117.21514	0.87021
3115.16299	0.87260
3113.11084	0.87478
3111.05869	0.87699
3109.00654	0.87935
3106.95439	0.88172
3104.90224	0.88400
3102.85009	0.88625
3100.79794	0.88850
3098.74579	0.89076
3096.69364	0.89297
3094.64149	0.89488
3092.58934	0.89649
3090.53719	0.89804
3088.48504	0.89982
3086.43289	0.90173
3084.38075	0.90354
3082.32860	0.90538
3080.27645	0.90729
3078.22430	0.90893
3076.17215	0.91015
3074.12000	0.91132
3072.06785	0.91297
3070.01570	0.91491
3067.96355	0.91654
3065.91140	0.91781
3063.85925	0.91896
3061.80710	0.92011
3059.75495	0.92131
3057.70280	0.92252
3055.65065	0.92361
3053.59850	0.92463
3051.54635	0.92575
3049.49420	0.92684
3047.44205	0.92786
3045.38990	0.92883
3043.33775	0.92973
3041.28560	0.93066
3039.23346	0.93159
3037.18131	0.93235
3035.12916	0.93315
3033.07701	0.93405
3031.02486	0.93470
3028.97271	0.93522
3026.92056	0.93591
3024.86841	0.93654
3022.81626	0.93691
3020.76411	0.93719
3018.71196	0.93767
3016.65981	0.93821
3014.60766	0.93842
3012.55551	0.93836
3010.50336	0.93837
3008.45121	0.93848
3006.39906	0.93840
3004.34691	0.93800
3002.29476	0.93745
3000.24261	0.93690
2998.19046	0.93622
2996.13832	0.93499
2994.08617	0.93322
2992.03402	0.93127
2989.98187	0.92884
2987.92972	0.92549
2985.87757	0.92125
2983.82542	0.91606
2981.77327	0.90971
2979.72112	0.90229
2977.66897	0.89390
2975.61682	0.88446
2973.56467	0.87394
2971.51252	0.86258
2969.46037	0.85066
2967.40822	0.83867
2965.35607	0.82708
2963.30392	0.81576
2961.25177	0.80434
2959.19962	0.79290
2957.14747	0.78162
2955.09532	0.77051
2953.04318	0.75969
2950.99103	0.74953
2948.93888	0.74059
2946.88673	0.73343
2944.83458	0.72863
2942.78243	0.72639
2940.73028	0.72618
2938.67813	0.72712
2936.62598	0.72868
2934.57383	0.73075
2932.52168	0.73332
2930.46953	0.73645
2928.41738	0.74029
2926.36523	0.74491
2924.31308	0.75006
2922.26093	0.75546
2920.20878	0.76101
2918.15663	0.76637
2916.10448	0.77115
2914.05233	0.77531
2912.00018	0.77897
2909.94803	0.78210
2907.89589	0.78460
2905.84374	0.78608
2903.79159	0.78610
2901.73944	0.78456
2899.68729	0.78145
2897.63514	0.77668
2895.58299	0.77017
2893.53084	0.76218
2891.47869	0.75339
2889.42654	0.74430
2887.37439	0.73545
2885.32224	0.72755
2883.27009	0.72111
2881.21794	0.71628
2879.16579	0.71322
2877.11364	0.71200
2875.06149	0.71252
2873.00934	0.71460
2870.95719	0.71818
2868.90504	0.72312
2866.85289	0.72917
2864.80075	0.73616
2862.74860	0.74371
2860.69645	0.75133
2858.64430	0.75891
2856.59215	0.76655
2854.54000	0.77423
2852.48785	0.78205
2850.43570	0.79014
2848.38355	0.79839
2846.33140	0.80676
2844.27925	0.81520
2842.22710	0.82338
2840.17495	0.83091
2838.12280	0.83745
2836.07065	0.84315
2834.01850	0.84849
2831.96635	0.85363
2829.91420	0.85839
2827.86205	0.86277
2825.80990	0.86698
2823.75775	0.87100
2821.70561	0.87484
2819.65346	0.87845
2817.60131	0.88170
2815.54916	0.88472
2813.49701	0.88770
2811.44486	0.89053
2809.39271	0.89314
2807.34056	0.89564
2805.28841	0.89814
2803.23626	0.90069
2801.18411	0.90319
2799.13196	0.90560
2797.07981	0.90800
2795.02766	0.91043
2792.97551	0.91275
2790.92336	0.91486
2788.87121	0.91691
2786.81906	0.91893
2784.76691	0.92081
2782.71476	0.92237
2780.66261	0.92366
2778.61046	0.92488
2776.55832	0.92600
2774.50617	0.92686
2772.45402	0.92763
2770.40187	0.92858
2768.34972	0.92953
2766.29757	0.93026
2764.24542	0.93093
2762.19327	0.93159
2760.14112	0.93208
2758.08897	0.93239
2756.03682	0.93267
2753.98467	0.93303
2751.93252	0.93343
2749.88037	0.93372
2747.82822	0.93390
2745.77607	0.93436
2743.72392	0.93505
2741.67177	0.93569
2739.61962	0.93638
2737.56747	0.93708
2735.51532	0.93769
2733.46318	0.93831
2731.41103	0.93888
2729.35888	0.93923
2727.30673	0.93955
2725.25458	0.94017
2723.20243	0.94118
2721.15028	0.94231
2719.09813	0.94324
2717.04598	0.94406
2714.99383	0.94511
2712.94168	0.94648
2710.88953	0.94793
2708.83738	0.94917
2706.78523	0.95024
2704.73308	0.95121
2702.68093	0.95197
2700.62878	0.95250
2698.57663	0.95293
2696.52448	0.95352
2694.47233	0.95425
2692.42018	0.95492
2690.36804	0.95548
2688.31589	0.95610
2686.26374	0.95699
2684.21159	0.95793
2682.15944	0.95834
2680.10729	0.95840
2678.05514	0.95876
2676.00299	0.95949
2673.95084	0.96014
2671.89869	0.96042
2669.84654	0.96049
2667.79439	0.96067
2665.74224	0.96100
2663.69009	0.96139
2661.63794	0.96177
2659.58579	0.96209
2657.53364	0.96230
2655.48149	0.96240
2653.42934	0.96253
2651.37719	0.96296
2649.32504	0.96355
2647.27289	0.96380
2645.22075	0.96392
2643.16860	0.96442
2641.11645	0.96504
2639.06430	0.96530
2637.01215	0.96546
2634.96000	0.96583
2632.90785	0.96614
2630.85570	0.96637
2628.80355	0.96690
2626.75140	0.96752
2624.69925	0.96779
2622.64710	0.96800
2620.59495	0.96850
2618.54280	0.96891
2616.49065	0.96904
2614.43850	0.96912
2612.38635	0.96953
2610.33420	0.97016
2608.28205	0.97046
2606.22990	0.97058
2604.17775	0.97104
2602.12561	0.97154
2600.07346	0.97171
2598.02131	0.97186
2595.96916	0.97219
2593.91701	0.97248
2591.86486	0.97265
2589.81271	0.97312
2587.76056	0.97398
2585.70841	0.97435
2583.65626	0.97417
2581.60411	0.97449
2579.55196	0.97523
2577.49981	0.97563
2575.44766	0.97594
2573.39551	0.97628
2571.34336	0.97629
2569.29121	0.97620
2567.23906	0.97624
2565.18691	0.97629
2563.13476	0.97631
2561.08261	0.97635
2559.03047	0.97657
2556.97832	0.97690
2554.92617	0.97698
2552.87402	0.97697
2550.82187	0.97711
2548.76972	0.97709
2546.71757	0.97686
2544.66542	0.97677
2542.61327	0.97683
2540.56112	0.97687
2538.50897	0.97704
2536.45682	0.97742
2534.40467	0.97765
2532.35252	0.97743
2530.30037	0.97706
2528.24822	0.97706
2526.19607	0.97735
2524.14392	0.97755
2522.09177	0.97775
2520.03962	0.97804
2517.98747	0.97823
2515.93532	0.97827
2513.88318	0.97826
2511.83103	0.97832
2509.77888	0.97826
2507.72673	0.97796
2505.67458	0.97779
2503.62243	0.97818
2501.57028	0.97882
2499.51813	0.97908
2497.46598	0.97911
2495.41383	0.97927
2493.36168	0.97938
2491.30953	0.97953
2489.25738	0.97994
2487.20523	0.98040
2485.15308	0.98073
2483.10093	0.98094
2481.04878	0.98111
2478.99663	0.98131
2476.94448	0.98164
2474.89233	0.98195
2472.84018	0.98206
2470.78804	0.98231
2468.73589	0.98276
2466.68374	0.98286
2464.63159	0.98278
2462.57944	0.98320
2460.52729	0.98385
2458.47514	0.98414
2456.42299	0.98423
2454.37084	0.98439
2452.31869	0.98456
2450.26654	0.98464
2448.21439	0.98481
2446.16224	0.98518
2444.11009	0.98559
2442.05794	0.98586
2440.00579	0.98595
2437.95364	0.98593
2435.90149	0.98583
2433.84934	0.98575
2431.79719	0.98574
2429.74504	0.98579
2427.69290	0.98603
2425.64075	0.98650
2423.58860	0.98673
2421.53645	0.98658
2419.48430	0.98632
2417.43215	0.98624
2415.38000	0.98640
2413.32785	0.98658
2411.27570	0.98677
2409.22355	0.98695
2407.17140	0.98703
2405.11925	0.98681
2403.06710	0.98662
2401.01495	0.98687
2398.96280	0.98714
2396.91065	0.98716
2394.85850	0.98711
2392.80635	0.98716
2390.75420	0.98742
2388.70205	0.98779
2386.64990	0.98799
2384.59775	0.98804
2382.54561	0.98808
2380.49346	0.98810
2378.44131	0.98808
2376.38916	0.98791
2374.33701	0.98757
2372.28486	0.98736
2370.23271	0.98770
2368.18056	0.98814
2366.12841	0.98806
2364.07626	0.98812
2362.02411	0.98859
2359.97196	0.98891
2357.91981	0.98901
2355.86766	0.98904
2353.81551	0.98858
2351.76336	0.98784
2349.71121	0.98756
2347.65906	0.98769
2345.60691	0.98799
2343.55476	0.98829
2341.50261	0.98831
2339.45047	0.98830
2337.39832	0.98862
2335.34617	0.98893
2333.29402	0.98901
2331.24187	0.98882
2329.18972	0.98863
2327.13757	0.98880
2325.08542	0.98925
2323.03327	0.98982
2320.98112	0.99029
2318.92897	0.99027
2316.87682	0.98997
2314.82467	0.98990
2312.77252	0.99003
2310.72037	0.99014
2308.66822	0.99013
2306.61607	0.99023
2304.56392	0.99048
2302.51177	0.99033
2300.45962	0.98991
2298.40747	0.98989
2296.35533	0.99024
2294.30318	0.99035
2292.25103	0.99030
2290.19888	0.99045
2288.14673	0.99037
2286.09458	0.99021
2284.04243	0.99037
2281.99028	0.99056
2279.93813	0.99081
2277.88598	0.99117
2275.83383	0.99128
2273.78168	0.99134
2271.72953	0.99165
2269.67738	0.99162
2267.62523	0.99142
2265.57308	0.99165
2263.52093	0.99190
2261.46878	0.99198
2259.41663	0.99226
2257.36448	0.99274
2255.31233	0.99297
2253.26018	0.99292
2251.20804	0.99292
2249.15589	0.99322
2247.10374	0.99348
2245.05159	0.99292
2242.99944	0.99226
2240.94729	0.99261
2238.89514	0.99352
2236.84299	0.99386
2234.79084	0.99347
2232.73869	0.99337
2230.68654	0.99391
2228.63439	0.99426
2226.58224	0.99373
2224.53009	0.99295
2222.47794	0.99302
2220.42579	0.99368
2218.37364	0.99441
2216.32149	0.99470
2214.26934	0.99433
2212.21719	0.99418
2210.16504	0.99424
2208.11290	0.99379
2206.06075	0.99355
2204.00860	0.99371
2201.95645	0.99364
2199.90430	0.99387
2197.85215	0.99467
2195.80000	0.99520
2193.74785	0.99521
2191.69570	0.99496
2189.64355	0.99486
2187.59140	0.99557
2185.53925	0.99701
2183.48710	0.99812
2181.43495	0.99764
2179.38280	0.99631
2177.33065	0.99569
2175.27850	0.99569
2173.22635	0.99592
2171.17420	0.99651
2169.12205	0.99736
2167.06990	0.99854
2165.01776	0.99979
2162.96561	1.00000
2160.91346	0.99908
2158.86131	0.99817
2156.80916	0.99763
2154.75701	0.99711
2152.70486	0.99671
2150.65271	0.99624
2148.60056	0.99580
2146.54841	0.99613
2144.49626	0.99648
2142.44411	0.99621
2140.39196	0.99591
2138.33981	0.99563
2136.28766	0.99513
2134.23551	0.99459
2132.18336	0.99453
2130.13121	0.99500
2128.07906	0.99513
2126.02691	0.99476
2123.97476	0.99446
2121.92262	0.99409
2119.87047	0.99370
2117.81832	0.99364
2115.76617	0.99352
2113.71402	0.99352
2111.66187	0.99408
2109.60972	0.99439
2107.55757	0.99423
2105.50542	0.99414
2103.45327	0.99395
2101.40112	0.99410
2099.34897	0.99489
2097.29682	0.99517
2095.24467	0.99462
2093.19252	0.99398
2091.14037	0.99360
2089.08822	0.99384
2087.03607	0.99451
2084.98392	0.99475
2082.93177	0.99496
2080.87962	0.99589
2078.82747	0.99663
2076.77533	0.99629
2074.72318	0.99559
2072.67103	0.99517
2070.61888	0.99493
2068.56673	0.99470
2066.51458	0.99437
2064.46243	0.99386
2062.41028	0.99326
2060.35813	0.99330
2058.30598	0.99425
2056.25383	0.99480
2054.20168	0.99441
2052.14953	0.99433
2050.09738	0.99533
2048.04523	0.99644
2045.99308	0.99630
2043.94093	0.99540
2041.88878	0.99492
2039.83663	0.99545
2037.78448	0.99666
2035.73233	0.99692
2033.68019	0.99606
2031.62804	0.99612
2029.57589	0.99724
2027.52374	0.99805
2025.47159	0.99791
2023.41944	0.99724
2021.36729	0.99713
2019.31514	0.99763
2017.26299	0.99784
2015.21084	0.99772
2013.15869	0.99786
2011.10654	0.99776
2009.05439	0.99717
2007.00224	0.99714
2004.95009	0.99769
2002.89794	0.99787
2000.84579	0.99767
1998.79364	0.99766
1996.74149	0.99772
1994.68934	0.99803
1992.63719	0.99886
1990.58505	0.99911
1988.53290	0.99820
1986.48075	0.99701
1984.42860	0.99680
1982.37645	0.99746
1980.32430	0.99742
1978.27215	0.99660
1976.22000	0.99653
1974.16785	0.99707
1972.11570	0.99714
1970.06355	0.99746
1968.01140	0.99877
1965.95925	1.00000
1963.90710	0.99982
1961.85495	0.99846
1959.80280	0.99720
1957.75065	0.99704
1955.69850	0.99794
1953.64635	0.99841
1951.59420	0.99788
1949.54205	0.99727
1947.48990	0.99716
1945.43776	0.99717
1943.38561	0.99643
1941.33346	0.99532
1939.28131	0.99484
1937.22916	0.99479
1935.17701	0.99500
1933.12486	0.99552
1931.07271	0.99588
1929.02056	0.99604
1926.96841	0.99645
1924.91626	0.99635
1922.86411	0.99549
1920.81196	0.99541
1918.75981	0.99613
1916.70766	0.99671
1914.65551	0.99706
1912.60336	0.99720
1910.55121	0.99735
1908.49906	0.99753
1906.44691	0.99760
1904.39476	0.99794
1902.34262	0.99827
1900.29047	0.99805
1898.23832	0.99773
1896.18617	0.99773
1894.13402	0.99788
1892.08187	0.99813
1890.02972	0.99848
1887.97757	0.99872
1885.92542	0.99857
1883.87327	0.99800
1881.82112	0.99734
1879.76897	0.99719
1877.71682	0.99741
1875.66467	0.99762
1873.61252	0.99800
1871.56037	0.99876
1869.50822	0.99925
1867.45607	0.99857
1865.40392	0.99772
1863.35177	0.99763
1861.29962	0.99789
1859.24748	0.99809
1857.19533	0.99802
1855.14318	0.99777
1853.09103	0.99777
1851.03888	0.99811
1848.98673	0.99830
1846.93458	0.99830
1844.88243	0.99839
1842.83028	0.99820
1840.77813	0.99792
1838.72598	0.99805
1836.67383	0.99843
1834.62168	0.99882
1832.56953	0.99927
1830.51738	0.99941
1828.46523	0.99893
1826.41308	0.99860
1824.36093	0.99867
1822.30878	0.99878
1820.25663	0.99878
1818.20448	0.99872
1816.15233	0.99879
1814.10019	0.99901
1812.04804	0.99933
1809.99589	0.99958
1807.94374	0.99949
1805.89159	0.99919
1803.83944	0.99916
1801.78729	0.99960
1799.73514	0.99999
1797.68299	0.99985
1795.63084	0.99955
1793.57869	0.99950
1791.52654	0.99947
1789.47439	0.99926
1787.42224	0.99914
1785.37009	0.99915
1783.31794	0.99933
1781.26579	0.99944
1779.21364	0.99931
1777.16149	0.99930
1775.10934	0.99957
1773.05719	0.99986
1771.00505	0.99974
1768.95290	0.99937
1766.90075	0.99919
1764.84860	0.99924
1762.79645	0.99932
1760.74430	0.99911
1758.69215	0.99877
1756.64000	0.99858
1754.58785	0.99860
1752.53570	0.99891
1750.48355	0.99928
1748.43140	0.99943
1746.37925	0.99935
1744.32710	0.99921
1742.27495	0.99907
1740.22280	0.99894
1738.17065	0.99887
1736.11850	0.99911
1734.06635	0.99955
1732.01420	0.99945
1729.96205	0.99911
1727.90991	0.99902
1725.85776	0.99918
1723.80561	0.99933
1721.75346	0.99945
1719.70131	0.99980
1717.64916	1.00000
1715.59701	0.99916
1713.54486	0.99800
1711.49271	0.99737
1709.44056	0.99726
1707.38841	0.99744
1705.33626	0.99752
1703.28411	0.99748
1701.23196	0.99766
1699.17981	0.99780
1697.12766	0.99737
1695.07551	0.99641
1693.02336	0.99570
1690.97121	0.99556
1688.91906	0.99574
1686.86691	0.99610
1684.81476	0.99637
1682.76262	0.99552
1680.71047	0.99444
1678.65832	0.99392
1676.60617	0.99370
1674.55402	0.99342
1672.50187	0.99317
1670.44972	0.99315
1668.39757	0.99277
1666.34542	0.99226
1664.29327	0.99218
1662.24112	0.99222
1660.18897	0.99211
1658.13682	0.99233
1656.08467	0.99302
1654.03252	0.99392
1651.98037	0.99393
1649.92822	0.99382
1647.87607	0.99443
1645.82392	0.99489
1643.77177	0.99482
1641.71962	0.99491
1639.66748	0.99535
1637.61533	0.99616
1635.56318	0.99679
1633.51103	0.99655
1631.45888	0.99642
1629.40673	0.99669
1627.35458	0.99710
1625.30243	0.99764
1623.25028	0.99817
1621.19813	0.99843
1619.14598	0.99877
1617.09383	0.99927
1615.04168	0.99931
1612.98953	0.99917
1610.93738	0.99926
1608.88523	0.99940
1606.83308	0.99934
1604.78093	0.99922
1602.72878	0.99921
1600.67663	0.99930
1598.62448	0.99951
1596.57234	0.99983
1594.52019	0.99996
1592.46804	0.99971
1590.41589	0.99941
1588.36374	0.99929
1586.31159	0.99924
1584.25944	0.99920
1582.20729	0.99924
1580.15514	0.99932
1578.10299	0.99969
1576.05084	1.00003
1573.99869	0.99966
1571.94654	0.99955
1569.89439	0.99971
1567.84224	0.99933
1565.79009	0.99883
1563.73794	0.99868
1561.68579	0.99902
1559.63364	1.00000
1557.58149	0.99985
1555.52934	0.99887
1553.47719	0.99832
1551.42505	0.99792
1549.37290	0.99758
1547.32075	0.99749
1545.26860	0.99789
1543.21645	0.99864
1541.16430	0.99939
1539.11215	0.99828
1537.06000	0.99668
1535.00785	0.99607
1532.95570	0.99548
1530.90355	0.99457
1528.85140	0.99408
1526.79925	0.99388
1524.74710	0.99358
1522.69495	0.99320
1520.64280	0.99224
1518.59065	0.99093
1516.53850	0.98931
1514.48635	0.98764
1512.43420	0.98653
1510.38205	0.98607
1508.32991	0.98544
1506.27776	0.98197
1504.22561	0.97793
1502.17346	0.97545
1500.12131	0.97281
1498.06916	0.96836
1496.01701	0.96142
1493.96486	0.95440
1491.91271	0.94725
1489.86056	0.93593
1487.80841	0.92128
1485.75626	0.90859
1483.70411	0.89805
1481.65196	0.88834
1479.59981	0.88019
1477.54766	0.87476
1475.49551	0.87171
1473.44336	0.87077
1471.39121	0.87140
1469.33906	0.87330
1467.28691	0.87657
1465.23477	0.88077
1463.18262	0.88372
1461.13047	0.88480
1459.07832	0.88471
1457.02617	0.88156
1454.97402	0.87634
1452.92187	0.87236
1450.86972	0.86854
1448.81757	0.86380
1446.76542	0.85793
1444.71327	0.85206
1442.66112	0.84666
1440.60897	0.84218
1438.55682	0.83951
1436.50467	0.83808
1434.45252	0.83689
1432.40037	0.83520
1430.34822	0.83180
1428.29607	0.82648
1426.24392	0.82096
1424.19177	0.81619
1422.13962	0.81340
1420.08748	0.81354
1418.03533	0.81612
1415.98318	0.81947
1413.93103	0.82320
1411.87888	0.82762
1409.82673	0.83233
1407.77458	0.83690
1405.72243	0.84172
1403.67028	0.84687
1401.61813	0.85141
1399.56598	0.85536
1397.51383	0.85858
1395.46168	0.86032
1393.40953	0.86017
1391.35738	0.85874
1389.30523	0.85644
1387.25308	0.85275
1385.20093	0.84843
1383.14878	0.84473
1381.09663	0.84146
1379.04448	0.83827
1376.99234	0.83534
1374.94019	0.83299
1372.88804	0.83172
1370.83589	0.83225
1368.78374	0.83458
1366.73159	0.83790
1364.67944	0.84142
1362.62729	0.84453
1360.57514	0.84612
1358.52299	0.84620
1356.47084	0.84554
1354.41869	0.84492
1352.36654	0.84522
1350.31439	0.84678
1348.26224	0.84950
1346.21009	0.85309
1344.15794	0.85715
1342.10579	0.86112
1340.05364	0.86472
1338.00149	0.86777
1335.94934	0.87035
1333.89720	0.87270
1331.84505	0.87484
1329.79290	0.87684
1327.74075	0.87880
1325.68860	0.88088
1323.63645	0.88309
1321.58430	0.88512
1319.53215	0.88697
1317.48000	0.88896
1315.42785	0.89141
1313.37570	0.89434
1311.32355	0.89740
1309.27140	0.90035
1307.21925	0.90324
1305.16710	0.90598
1303.11495	0.90825
1301.06280	0.90974
1299.01065	0.91041
1296.95850	0.91046
1294.90635	0.91029
1292.85420	0.91048
1290.80205	0.91156
1288.74991	0.91390
1286.69776	0.91761
1284.64561	0.92240
1282.59346	0.92779
1280.54131	0.93351
1278.48916	0.93924
1276.43701	0.94446
1274.38486	0.94885
1272.33271	0.95238
1270.28056	0.95510
1268.22841	0.95693
1266.17626	0.95801
1264.12411	0.95866
1262.07196	0.95880
1260.01981	0.95832
1257.96766	0.95758
1255.91551	0.95683
1253.86336	0.95595
1251.81121	0.95479
1249.75906	0.95337
1247.70691	0.95173
1245.65477	0.94966
1243.60262	0.94718
1241.55047	0.94467
1239.49832	0.94247
1237.44617	0.94087
1235.39402	0.93992
1233.34187	0.93953
1231.28972	0.93988
1229.23757	0.94091
1227.18542	0.94223
1225.13327	0.94369
1223.08112	0.94520
1221.02897	0.94648
1218.97682	0.94733
1216.92467	0.94794
1214.87252	0.94856
1212.82037	0.94901
1210.76822	0.94906
1208.71607	0.94874
1206.66392	0.94821
1204.61177	0.94737
1202.55963	0.94619
1200.50748	0.94487
1198.45533	0.94354
1196.40318	0.94229
1194.35103	0.94116
1192.29888	0.94032
1190.24673	0.94008
1188.19458	0.94038
1186.14243	0.94127
1184.09028	0.94300
1182.03813	0.94559
1179.98598	0.94880
1177.93383	0.95268
1175.88168	0.95732
1173.82953	0.96242
1171.77738	0.96774
1169.72523	0.97326
1167.67308	0.97891
1165.62093	0.98420
1163.56878	0.98868
1161.51663	0.99243
1159.46448	0.99570
1157.41234	0.99812
1155.36019	0.99943
1153.30804	1.00000
1151.25589	0.99990
1149.20374	0.99878
1147.15159	0.99661
1145.09944	0.99351
1143.04729	0.98974
1140.99514	0.98534
1138.94299	0.97963
1136.89084	0.97185
1134.83869	0.96162
1132.78654	0.94851
1130.73439	0.93228
1128.68224	0.91353
1126.63009	0.89368
1124.57794	0.87424
1122.52579	0.85634
1120.47364	0.84104
1118.42149	0.82918
1116.36934	0.82077
1114.31720	0.81506
1112.26505	0.81116
1110.21290	0.80820
1108.16075	0.80523
1106.10860	0.80152
1104.05645	0.79671
1102.00430	0.79077
1099.95215	0.78431
1097.90000	0.77840
1095.84785	0.77357
1093.79570	0.76965
1091.74355	0.76559
1089.69140	0.75963
1087.63925	0.75031
1085.58710	0.73629
1083.53495	0.71618
1081.48280	0.69018
1079.43065	0.65971
1077.37850	0.62634
1075.32635	0.59167
1073.27420	0.55657
1071.22206	0.52112
1069.16991	0.48570
1067.11776	0.45102
1065.06561	0.41834
1063.01346	0.38979
1060.96131	0.36725
1058.90916	0.35197
1056.85701	0.34475
1054.80486	0.34513
1052.75271	0.35127
1050.70056	0.36135
1048.64841	0.37383
1046.59626	0.38691
1044.54411	0.39830
1042.49196	0.40573
1040.43981	0.40812
1038.38766	0.40652
1036.33551	0.40377
1034.28336	0.40336
1032.23121	0.40884
1030.17906	0.42289
1028.12692	0.44656
1026.07477	0.47925
1024.02262	0.51892
1021.97047	0.56268
1019.91832	0.60788
1017.86617	0.65255
1015.81402	0.69535
1013.76187	0.73516
1011.70972	0.77081
1009.65757	0.80113
1007.60542	0.82502
1005.55327	0.84165
1003.50112	0.85047
1001.44897	0.85117
999.39682	0.84349
997.34467	0.82748
995.29252	0.80332
993.24037	0.77180
991.18822	0.73605
989.13607	0.70150
987.08392	0.67420
985.03177	0.65900
982.97963	0.65855
980.92748	0.67300
978.87533	0.70003
976.82318	0.73527
974.77103	0.77357
972.71888	0.81026
970.66673	0.84228
968.61458	0.86814
966.56243	0.88730
964.51028	0.90012
962.45813	0.90774
960.40598	0.91179
958.35383	0.91305
956.30168	0.91134
954.24953	0.90578
952.19738	0.89443
950.14523	0.87597
948.09308	0.85159
946.04093	0.82468
943.98878	0.79997
941.93663	0.78208
939.88449	0.77367
937.83234	0.77451
935.78019	0.78126
933.72804	0.78845
931.67589	0.79088
929.62374	0.78572
927.57159	0.77337
925.51944	0.75705
923.46729	0.74135
921.41514	0.73074
919.36299	0.72859
917.31084	0.73681
915.25869	0.75552
913.20654	0.78260
911.15439	0.81439
909.10224	0.84710
907.05009	0.87794
904.99794	0.90486
902.94579	0.92685
900.89364	0.94449
898.84149	0.95848
896.78935	0.96909
894.73720	0.97700
892.68505	0.98317
890.63290	0.98786
888.58075	0.99109
886.52860	0.99315
884.47645	0.99386
882.42430	0.99297
880.37215	0.99081
878.32000	0.98776
876.26785	0.98390
874.21570	0.97953
872.16355	0.97540
870.11140	0.97250
868.05925	0.97183
866.00710	0.97411
863.95495	0.97930
861.90280	0.98584
859.85065	0.99180
857.79850	0.99620
855.74635	0.99855
853.69420	0.99893
851.64206	0.99800
849.58991	0.99672
847.53776	0.99631
845.48561	0.99714
843.43346	0.99837
841.38131	0.99932
839.32916	1.00000
837.27701	1.00047
835.22486	1.00000
833.17271	0.99867
831.12056	0.99643
829.06841	0.99299
827.01626	0.98889
824.96411	0.98455
822.91196	0.97954
820.85981	0.97456
818.80766	0.97042
816.75551	0.96666
814.70336	0.96338
812.65121	0.96118
810.59906	0.95953
808.54692	0.95750
806.49477	0.95463
804.44262	0.95062
802.39047	0.94577
800.33832	0.94097
798.28617	0.93624
796.23402	0.93111
794.18187	0.92559
792.12972	0.91996
790.07757	0.91429
788.02542	0.90895
785.97327	0.90451
783.92112	0.90090
781.86897	0.89829
779.81682	0.89703
777.76467	0.89710
775.71252	0.89861
773.66037	0.90112
771.60822	0.90343
769.55607	0.90486
767.50392	0.90531
765.45178	0.90490
763.39963	0.90378
761.34748	0.90223
759.29533	0.90080
757.24318	0.89991
755.19103	0.89913
753.13888	0.89774
751.08673	0.89597
749.03458	0.89415
746.98243	0.89182
744.93028	0.88888
742.87813	0.88578
740.82598	0.88259
738.77383	0.87966
736.72168	0.87739
734.66953	0.87496
732.61738	0.87176
730.56523	0.86827
728.51308	0.86484
726.46093	0.86150
724.40878	0.85830
722.35663	0.85511
720.30449	0.85208
718.25234	0.84917
716.20019	0.84607
714.14804	0.84283
712.09589	0.83963
710.04374	0.83635
707.99159	0.83269
705.93944	0.82891
703.88729	0.82558
701.83514	0.82254
699.78299	0.81926
697.73084	0.81571
695.67869	0.81224
693.62654	0.80937
691.57439	0.80665
689.52224	0.80348
687.47009	0.80032
685.41794	0.79753
683.36579	0.79524
681.31364	0.79280
679.26149	0.78926
677.20935	0.78550
675.15720	0.78304
673.10505	0.78143
671.05290	0.77955
669.00075	0.77684
666.94860	0.77407
664.89645	0.77276
662.84430	0.77164
660.79215	0.76968
658.74000	0.76712
656.68785	0.76451
654.63570	0.76253
652.58355	0.76166
650.53140	0.76097
648.47925	0.75904
646.42710	0.75627
644.37495	0.75432
642.32280	0.75380
640.27065	0.75354
638.21850	0.75245
636.16635	0.75080
634.11421	0.74950
632.06206	0.74841
630.00991	0.74749
627.95776	0.74725
625.90561	0.74716
623.85346	0.74658
621.80131	0.74585
619.74916	0.74566
617.69701	0.74611
615.64486	0.74722
613.59271	0.74876
611.54056	0.75028
609.48841	0.75120
607.43626	0.75157
605.38411	0.75221
603.33196	0.75292
601.27981	0.75339
599.22766	0.75466
597.17551	0.75669
595.12336	0.75848
593.07121	0.76032
591.01906	0.76206
588.96692	0.76358
586.91477	0.76518
584.86262	0.76649
582.81047	0.76804
580.75832	0.76998
578.70617	0.77198
576.65402	0.77466
574.60187	0.77761
572.54972	0.77931
570.49757	0.77996
568.44542	0.78156
566.39327	0.78469
564.34112	0.78788
562.28897	0.79104
560.23682	0.79458
558.18467	0.79748
556.13252	0.79941
554.08037	0.80126
552.02822	0.80383
549.97607	0.80635
547.92392	0.80797
545.87178	0.80939
543.81963	0.80971
541.76748	0.80805
539.71533	0.80458
537.66318	0.79774
535.61103	0.78698
533.55888	0.77351
531.50673	0.75861
529.45458	0.74460
527.40243	0.73464
525.35028	0.73186
523.29813	0.73780
521.24598	0.75080
519.19383	0.76739
517.14168	0.78360
515.08953	0.79676
513.03738	0.80745
510.98523	0.81722
508.93308	0.82494
506.88093	0.83079
504.82878	0.83729
502.77664	0.84454
500.72449	0.85108
498.67234	0.85688
496.62019	0.86220
494.56804	0.86717
492.51589	0.87213
490.46374	0.87641
488.41159	0.87989
486.35944	0.88277
484.30729	0.88511
482.25514	0.88734
480.20299	0.89054
478.15084	0.89618
476.09869	0.90309
474.04654	0.91094
471.99439	0.92088
469.94224	0.92899
467.89009	0.93355
465.83794	0.93813
463.78579	0.94440
461.73364	0.94948
459.68149	0.95168
457.62935	0.95330
455.57720	0.95503
453.52505	0.95617
451.47290	0.95602
449.42075	0.95406
447.36860	0.95213
445.31645	0.95218
443.26430	0.95179
441.21215	0.94851
439.16000	0.94617
437.10785	0.94625
435.05570	0.94536
433.00355	0.94252
430.95140	0.94029
428.89925	0.94147
426.84710	0.94540
424.79495	0.94770
422.74280	0.94856
420.69065	0.95420
418.63850	0.96494
416.58635	0.97092
414.53421	0.97370
412.48206	0.97639
410.42991	0.97814
408.37776	0.97868
406.32561	0.97807
404.27346	0.98037
402.22131	0.98645
400.16916	0.99347
398.11701	1.00000
