3997.58729	1.00006
3995.53514	0.99982
3993.48299	0.99964
3991.43084	0.99961
3989.37869	0.99979
3987.32654	1.00000
3985.27439	0.99990
3983.22224	0.99943
3981.17009	0.99911
3979.11794	0.99903
3977.06579	0.99896
3975.01364	0.99893
3972.96149	0.99896
3970.90934	0.99912
3968.85719	0.99930
3966.80504	0.99930
3964.75289	0.99928
3962.70074	0.99938
3960.64859	0.99942
3958.59645	0.99926
3956.54430	0.99911
3954.49215	0.99912
3952.44000	0.99912
3950.38785	0.99913
3948.33570	0.99918
3946.28355	0.99906
3944.23140	0.99878
3942.17925	0.99861
3940.12710	0.99886
3938.07495	0.99931
3936.02280	0.99963
3933.97065	0.99992
3931.91850	1.00006
3929.86635	0.99991
3927.81420	0.99969
3925.76205	0.99969
3923.70990	0.99987
3921.65775	0.99999
3919.60560	0.99995
3917.55345	0.99979
3915.50131	0.99951
3913.44916	0.99921
3911.39701	0.99927
3909.34486	0.99956
3907.29271	0.99974
3905.24056	0.99998
3903.18841	1.00012
3901.13626	0.99991
3899.08411	0.99999
3897.03196	1.00007
3894.97981	0.99979
3892.92766	0.99978
3890.87551	1.00000
3888.82336	0.99982
3886.77121	0.99951
3884.71906	0.99934
3882.66691	0.99941
3880.61476	0.99954
3878.56261	0.99925
3876.51046	0.99901
3874.45831	0.99922
3872.40616	0.99952
3870.35402	0.99953
3868.30187	0.99961
3866.24972	0.99989
3864.19757	0.99997
3862.14542	0.99978
3860.09327	0.99951
3858.04112	0.99924
3855.98897	0.99917
3853.93682	0.99954
3851.88467	1.00000
3849.83252	0.99981
3847.78037	0.99944
3845.72822	0.99938
3843.67607	0.99964
3841.62392	0.99983
3839.57177	0.99979
3837.51962	0.99963
3835.46747	0.99936
3833.41532	0.99923
3831.36317	0.99933
3829.31102	0.99943
3827.25888	0.99936
3825.20673	0.99921
3823.15458	0.99932
3821.10243	0.99972
3819.05028	0.99984
3816.99813	0.99972
3814.94598	0.99946
3812.89383	0.99905
3810.84168	0.99891
3808.78953	0.99925
3806.73738	0.99973
3804.68523	0.99972
3802.63308	0.99913
3800.58093	0.99847
3798.52878	0.99857
3796.47663	0.99902
3794.42448	0.99910
3792.37233	0.99896
3790.32018	0.99895
3788.26803	0.99888
3786.21588	0.99876
3784.16374	0.99883
3782.11159	0.99890
3780.05944	0.99893
3778.00729	0.99901
3775.95514	0.99896
3773.90299	0.99874
3771.85084	0.99860
3769.79869	0.99869
3767.74654	0.99885
3765.69439	0.99887
3763.64224	0.99869
3761.59009	0.99853
3759.53794	0.99850
3757.48579	0.99845
3755.43364	0.99840
3753.38149	0.99863
3751.32934	0.99928
3749.27719	0.99962
3747.22504	0.99943
3745.17289	0.99940
3743.12074	0.99947
3741.06859	0.99931
3739.01645	0.99919
3736.96430	0.99942
3734.91215	1.00000
3732.86000	0.99999
3730.80785	0.99920
3728.75570	0.99843
3726.70355	0.99823
3724.65140	0.99864
3722.59925	0.99899
3720.54710	0.99895
3718.49495	0.99873
3716.44280	0.99852
3714.39065	0.99851
3712.33850	0.99877
3710.28635	0.99892
3708.23420	0.99861
3706.18205	0.99823
3704.12990	0.99813
3702.07775	0.99829
3700.02560	0.99841
3697.97345	0.99825
3695.92131	0.99776
3693.86916	0.99749
3691.81701	0.99795
3689.76486	0.99839
3687.71271	0.99825
3685.66056	0.99781
3683.60841	0.99727
3681.55626	0.99699
3679.50411	0.99696
3677.45196	0.99695
3675.39981	0.99676
3673.34766	0.99628
3671.29551	0.99621
3669.24336	0.99653
3667.19121	0.99635
3665.13906	0.99588
3663.08691	0.99565
3661.03476	0.99550
3658.98261	0.99528
3656.93046	0.99507
3654.87831	0.99494
3652.82617	0.99499
3650.77402	0.99517
3648.72187	0.99485
3646.66972	0.99397
3644.61757	0.99330
3642.56542	0.99288
3640.51327	0.99259
3638.46112	0.99221
3636.40897	0.99170
3634.35682	0.99121
3632.30467	0.99103
3630.25252	0.99117
3628.20037	0.99058
3626.14822	0.98926
3624.09607	0.98840
3622.04392	0.98820
3619.99177	0.98818
3617.93962	0.98734
3615.88747	0.98626
3613.83532	0.98569
3611.78317	0.98526
3609.73102	0.98461
3607.67888	0.98360
3605.62673	0.98243
3603.57458	0.98143
3601.52243	0.98061
3599.47028	0.97994
3597.41813	0.97921
3595.36598	0.97812
3593.31383	0.97684
3591.26168	0.97578
3589.20953	0.97490
3587.15738	0.97385
3585.10523	0.97248
3583.05308	0.97108
3581.00093	0.96984
3578.94878	0.96862
3576.89663	0.96718
3574.84448	0.96561
3572.79233	0.96420
3570.74018	0.96294
3568.68803	0.96162
3566.63588	0.96002
3564.58374	0.95834
3562.53159	0.95663
3560.47944	0.95476
3558.42729	0.95295
3556.37514	0.95129
3554.32299	0.94964
3552.27084	0.94762
3550.21869	0.94530
3548.16654	0.94300
3546.11439	0.94078
3544.06224	0.93879
3542.01009	0.93700
3539.95794	0.93495
3537.90579	0.93244
3535.85364	0.92983
3533.80149	0.92724
3531.74934	0.92477
3529.69719	0.92258
3527.64504	0.92026
3525.59289	0.91764
3523.54074	0.91484
3521.48860	0.91180
3519.43645	0.90886
3517.38430	0.90618
3515.33215	0.90356
3513.28000	0.90062
3511.22785	0.89725
3509.17570	0.89396
3507.12355	0.89125
3505.07140	0.88866
3503.01925	0.88550
3500.96710	0.88227
3498.91495	0.87941
3496.86280	0.87634
3494.81065	0.87278
3492.75850	0.86932
3490.70635	0.86616
3488.65420	0.86297
3486.60205	0.85960
3484.54990	0.85618
3482.49775	0.85283
3480.44560	0.84942
3478.39345	0.84603
3476.34131	0.84280
3474.28916	0.83970
3472.23701	0.83648
3470.18486	0.83306
3468.13271	0.82970
3466.08056	0.82637
3464.02841	0.82282
3461.97626	0.81910
3459.92411	0.81554
3457.87196	0.81225
3455.81981	0.80896
3453.76766	0.80535
3451.71551	0.80158
3449.66336	0.79796
3447.61121	0.79441
3445.55906	0.79084
3443.50691	0.78734
3441.45476	0.78373
3439.40261	0.78024
3437.35046	0.77684
3435.29831	0.77321
3433.24617	0.76960
3431.19402	0.76604
3429.14187	0.76248
3427.08972	0.75912
3425.03757	0.75587
3422.98542	0.75246
3420.93327	0.74886
3418.88112	0.74527
3416.82897	0.74191
3414.77682	0.73869
3412.72467	0.73546
3410.67252	0.73214
3408.62037	0.72874
3406.56822	0.72545
3404.51607	0.72233
3402.46392	0.71929
3400.41177	0.71607
3398.35962	0.71268
3396.30747	0.70937
3394.25532	0.70621
3392.20317	0.70308
3390.15103	0.69984
3388.09888	0.69646
3386.04673	0.69330
3383.99458	0.69050
3381.94243	0.68779
3379.89028	0.68490
3377.83813	0.68177
3375.78598	0.67881
3373.73383	0.67609
3371.68168	0.67332
3369.62953	0.67055
3367.57738	0.66791
3365.52523	0.66521
3363.47308	0.66258
3361.42093	0.66013
3359.36878	0.65765
3357.31663	0.65516
3355.26448	0.65283
3353.21233	0.65064
3351.16018	0.64836
3349.10803	0.64597
3347.05588	0.64376
3345.00374	0.64182
3342.95159	0.64006
3340.89944	0.63835
3338.84729	0.63672
3336.79514	0.63516
3334.74299	0.63355
3332.69084	0.63200
3330.63869	0.63070
3328.58654	0.62950
3326.53439	0.62836
3324.48224	0.62737
3322.43009	0.62640
3320.37794	0.62536
3318.32579	0.62442
3316.27364	0.62377
3314.22149	0.62335
3312.16934	0.62305
3310.11719	0.62288
3308.06504	0.62275
3306.01289	0.62259
3303.96074	0.62237
3301.90860	0.62221
3299.85645	0.62215
3297.80430	0.62217
3295.75215	0.62239
3293.70000	0.62287
3291.64785	0.62335
3289.59570	0.62377
3287.54355	0.62428
3285.49140	0.62487
3283.43925	0.62558
3281.38710	0.62652
3279.33495	0.62771
3277.28280	0.62898
3275.23065	0.63019
3273.17850	0.63130
3271.12635	0.63228
3269.07420	0.63329
3267.02205	0.63470
3264.96990	0.63634
3262.91775	0.63787
3260.86560	0.63950
3258.81346	0.64132
3256.76131	0.64326
3254.70916	0.64512
3252.65701	0.64681
3250.60486	0.64868
3248.55271	0.65098
3246.50056	0.65332
3244.44841	0.65553
3242.39626	0.65792
3240.34411	0.66047
3238.29196	0.66300
3236.23981	0.66566
3234.18766	0.66847
3232.13551	0.67121
3230.08336	0.67385
3228.03121	0.67673
3225.97906	0.67995
3223.92691	0.68327
3221.87476	0.68654
3219.82261	0.68975
3217.77046	0.69285
3215.71832	0.69596
3213.66617	0.69927
3211.61402	0.70266
3209.56187	0.70601
3207.50972	0.70937
3205.45757	0.71286
3203.40542	0.71655
3201.35327	0.72028
3199.30112	0.72390
3197.24897	0.72756
3195.19682	0.73126
3193.14467	0.73489
3191.09252	0.73844
3189.04037	0.74201
3186.98822	0.74579
3184.93607	0.74982
3182.88392	0.75384
3180.83177	0.75773
3178.77962	0.76148
3176.72747	0.76511
3174.67532	0.76873
3172.62317	0.77233
3170.57103	0.77595
3168.51888	0.77965
3166.46673	0.78328
3164.41458	0.78696
3162.36243	0.79080
3160.31028	0.79457
3158.25813	0.79808
3156.20598	0.80139
3154.15383	0.80477
3152.10168	0.80836
3150.04953	0.81185
3147.99738	0.81504
3145.94523	0.81814
3143.89308	0.82135
3141.84093	0.82464
3139.78878	0.82802
3137.73663	0.83136
3135.68448	0.83452
3133.63233	0.83757
3131.58018	0.84060
3129.52803	0.84353
3127.47589	0.84635
3125.42374	0.84916
3123.37159	0.85210
3121.31944	0.85505
3119.26729	0.85781
3117.21514	0.86049
3115.16299	0.86315
3113.11084	0.86567
3111.05869	0.86806
3109.00654	0.87055
3106.95439	0.87311
3104.90224	0.87544
3102.85009	0.87757
3100.79794	0.87968
3098.74579	0.88191
3096.69364	0.88425
3094.64149	0.88651
3092.58934	0.88856
3090.53719	0.89048
3088.48504	0.89234
3086.43289	0.89416
3084.38075	0.89604
3082.32860	0.89796
3080.27645	0.89997
3078.22430	0.90197
3076.17215	0.90368
3074.12000	0.90524
3072.06785	0.90695
3070.01570	0.90864
3067.96355	0.91007
3065.91140	0.91144
3063.85925	0.91290
3061.80710	0.91425
3059.75495	0.91549
3057.70280	0.91688
3055.65065	0.91823
3053.59850	0.91943
3051.54635	0.92067
3049.49420	0.92178
3047.44205	0.92287
3045.38990	0.92407
3043.33775	0.92511
3041.28560	0.92599
3039.23346	0.92701
3037.18131	0.92805
3035.12916	0.92898
3033.07701	0.92995
3031.02486	0.93082
3028.97271	0.93143
3026.92056	0.93194
3024.86841	0.93248
3022.81626	0.93295
3020.76411	0.93328
3018.71196	0.93359
3016.65981	0.93406
3014.60766	0.93463
3012.55551	0.93502
3010.50336	0.93518
3008.45121	0.93522
3006.39906	0.93504
3004.34691	0.93468
3002.29476	0.93427
3000.24261	0.93387
2998.19046	0.93332
2996.13832	0.93223
2994.08617	0.93055
2992.03402	0.92852
2989.98187	0.92599
2987.92972	0.92280
2985.87757	0.91883
2983.82542	0.91379
2981.77327	0.90740
2979.72112	0.89977
2977.66897	0.89118
2975.61682	0.88162
2973.56467	0.87092
2971.51252	0.85937
2969.46037	0.84748
2967.40822	0.83562
2965.35607	0.82401
2963.30392	0.81275
2961.25177	0.80173
2959.19962	0.79070
2957.14747	0.77959
2955.09532	0.76856
2953.04318	0.75768
2950.99103	0.74737
2948.93888	0.73850
2946.88673	0.73184
2944.83458	0.72756
2942.78243	0.72542
2940.73028	0.72501
2938.67813	0.72587
2936.62598	0.72776
2934.57383	0.73031
2932.52168	0.73312
2930.46953	0.73628
2928.41738	0.74030
2926.36523	0.74520
2924.31308	0.75049
2922.26093	0.75600
2920.20878	0.76151
2918.15663	0.76675
2916.10448	0.77145
2914.05233	0.77555
2912.00018	0.77911
2909.94803	0.78206
2907.89589	0.78420
2905.84374	0.78523
2903.79159	0.78496
2901.73944	0.78328
2899.68729	0.78011
2897.63514	0.77530
2895.58299	0.76875
2893.53084	0.76080
2891.47869	0.75213
2889.42654	0.74331
2887.37439	0.73484
2885.32224	0.72745
2883.27009	0.72168
2881.21794	0.71764
2879.16579	0.71533
2877.11364	0.71487
2875.06149	0.71618
2873.00934	0.71898
2870.95719	0.72321
2868.90504	0.72881
2866.85289	0.73543
2864.80075	0.74272
2862.74860	0.75033
2860.69645	0.75794
2858.64430	0.76545
2856.59215	0.77274
2854.54000	0.77976
2852.48785	0.78701
2850.43570	0.79472
2848.38355	0.80250
2846.33140	0.81025
2844.27925	0.81803
2842.22710	0.82553
2840.17495	0.83239
2838.12280	0.83860
2836.07065	0.84418
2834.01850	0.84907
2831.96635	0.85366
2829.91420	0.85825
2827.86205	0.86262
2825.80990	0.86670
2823.75775	0.87065
2821.70561	0.87456
2819.65346	0.87821
2817.60131	0.88159
2815.54916	0.88487
2813.49701	0.88786
2811.44486	0.89053
2809.39271	0.89328
2807.34056	0.89608
2805.28841	0.89871
2803.23626	0.90125
2801.18411	0.90378
2799.13196	0.90616
2797.07981	0.90835
2795.02766	0.91053
2792.97551	0.91272
2790.92336	0.91483
2788.87121	0.91675
2786.81906	0.91851
2784.76691	0.92017
2782.71476	0.92167
2780.66261	0.92300
2778.61046	0.92434
2776.55832	0.92562
2774.50617	0.92654
2772.45402	0.92718
2770.40187	0.92787
2768.34972	0.92863
2766.29757	0.92932
2764.24542	0.92986
2762.19327	0.93032
2760.14112	0.93086
2758.08897	0.93141
2756.03682	0.93179
2753.98467	0.93206
2751.93252	0.93251
2749.88037	0.93307
2747.82822	0.93346
2745.77607	0.93382
2743.72392	0.93447
2741.67177	0.93525
2739.61962	0.93600
2737.56747	0.93670
2735.51532	0.93726
2733.46318	0.93770
2731.41103	0.93815
2729.35888	0.93874
2727.30673	0.93943
2725.25458	0.94021
2723.20243	0.94114
2721.15028	0.94212
2719.09813	0.94303
2717.04598	0.94397
2714.99383	0.94515
2712.94168	0.94646
2710.88953	0.94774
2708.83738	0.94885
2706.78523	0.94978
2704.73308	0.95068
2702.68093	0.95153
2700.62878	0.95209
2698.57663	0.95241
2696.52448	0.95304
2694.47233	0.95398
2692.42018	0.95472
2690.36804	0.95520
2688.31589	0.95577
2686.26374	0.95668
2684.21159	0.95757
2682.15944	0.95795
2680.10729	0.95807
2678.05514	0.95841
2676.00299	0.95904
2673.95084	0.95974
2671.89869	0.96021
2669.84654	0.96025
2667.79439	0.96021
2665.74224	0.96055
2663.69009	0.96110
2661.63794	0.96146
2659.58579	0.96166
2657.53364	0.96185
2655.48149	0.96212
2653.42934	0.96241
2651.37719	0.96272
2649.32504	0.96305
2647.27289	0.96332
2645.22075	0.96356
2643.16860	0.96389
2641.11645	0.96433
2639.06430	0.96479
2637.01215	0.96528
2634.96000	0.96573
2632.90785	0.96590
2630.85570	0.96590
2628.80355	0.96624
2626.75140	0.96685
2624.69925	0.96739
2622.64710	0.96794
2620.59495	0.96847
2618.54280	0.96868
2616.49065	0.96864
2614.43850	0.96877
2612.38635	0.96927
2610.33420	0.96980
2608.28205	0.96997
2606.22990	0.96998
2604.17775	0.97027
2602.12561	0.97068
2600.07346	0.97102
2598.02131	0.97150
2595.96916	0.97213
2593.91701	0.97259
2591.86486	0.97275
2589.81271	0.97281
2587.76056	0.97306
2585.70841	0.97345
2583.65626	0.97388
2581.60411	0.97448
2579.55196	0.97517
2577.49981	0.97570
2575.44766	0.97611
2573.39551	0.97622
2571.34336	0.97606
2569.29121	0.97612
2567.23906	0.97623
2565.18691	0.97618
2563.13476	0.97622
2561.08261	0.97626
2559.03047	0.97625
2556.97832	0.97627
2554.92617	0.97628
2552.87402	0.97641
2550.82187	0.97661
2548.76972	0.97660
2546.71757	0.97649
2544.66542	0.97656
2542.61327	0.97682
2540.56112	0.97700
2538.50897	0.97698
2536.45682	0.97688
2534.40467	0.97690
2532.35252	0.97706
2530.30037	0.97710
2528.24822	0.97704
2526.19607	0.97713
2524.14392	0.97739
2522.09177	0.97765
2520.03962	0.97785
2517.98747	0.97800
2515.93532	0.97807
2513.88318	0.97802
2511.83103	0.97799
2509.77888	0.97791
2507.72673	0.97763
2505.67458	0.97758
2503.62243	0.97809
2501.57028	0.97872
2499.51813	0.97904
2497.46598	0.97926
2495.41383	0.97961
2493.36168	0.97985
2491.30953	0.97991
2489.25738	0.98005
2487.20523	0.98045
2485.15308	0.98115
2483.10093	0.98173
2481.04878	0.98188
2478.99663	0.98186
2476.94448	0.98187
2474.89233	0.98208
2472.84018	0.98240
2470.78804	0.98265
2468.73589	0.98295
2466.68374	0.98324
2464.63159	0.98318
2462.57944	0.98306
2460.52729	0.98320
2458.47514	0.98341
2456.42299	0.98361
2454.37084	0.98401
2452.31869	0.98452
2450.26654	0.98479
2448.21439	0.98495
2446.16224	0.98519
2444.11009	0.98544
2442.05794	0.98578
2440.00579	0.98595
2437.95364	0.98579
2435.90149	0.98567
2433.84934	0.98581
2431.79719	0.98613
2429.74504	0.98652
2427.69290	0.98669
2425.64075	0.98660
2423.58860	0.98656
2421.53645	0.98661
2419.48430	0.98642
2417.43215	0.98618
2415.38000	0.98635
2413.32785	0.98667
2411.27570	0.98666
2409.22355	0.98663
2407.17140	0.98687
2405.11925	0.98699
2403.06710	0.98708
2401.01495	0.98749
2398.96280	0.98778
2396.91065	0.98759
2394.85850	0.98725
2392.80635	0.98706
2390.75420	0.98720
2388.70205	0.98760
2386.64990	0.98798
2384.59775	0.98819
2382.54561	0.98831
2380.49346	0.98841
2378.44131	0.98853
2376.38916	0.98868
2374.33701	0.98861
2372.28486	0.98842
2370.23271	0.98871
2368.18056	0.98946
2366.12841	0.99001
2364.07626	0.99006
2362.02411	0.98956
2359.97196	0.98916
2357.91981	0.98956
2355.86766	0.99005
2353.81551	0.98962
2351.76336	0.98883
2349.71121	0.98857
2347.65906	0.98870
2345.60691	0.98903
2343.55476	0.98943
2341.50261	0.98945
2339.45047	0.98919
2337.39832	0.98924
2335.34617	0.98965
2333.29402	0.99005
2331.24187	0.99021
2329.18972	0.99022
2327.13757	0.99019
2325.08542	0.99017
2323.03327	0.99032
2320.98112	0.99045
2318.92897	0.99035
2316.87682	0.99029
2314.82467	0.99052
2312.77252	0.99089
2310.72037	0.99088
2308.66822	0.99044
2306.61607	0.99008
2304.56392	0.99003
2302.51177	0.99002
2300.45962	0.99005
2298.40747	0.99024
2296.35533	0.99029
2294.30318	0.99011
2292.25103	0.99023
2290.19888	0.99073
2288.14673	0.99101
2286.09458	0.99111
2284.04243	0.99131
2281.99028	0.99142
2279.93813	0.99141
2277.88598	0.99141
2275.83383	0.99114
2273.78168	0.99087
2271.72953	0.99124
2269.67738	0.99174
2267.62523	0.99215
2265.57308	0.99266
2263.52093	0.99262
2261.46878	0.99223
2259.41663	0.99228
2257.36448	0.99273
2255.31233	0.99308
2253.26018	0.99335
2251.20804	0.99361
2249.15589	0.99349
2247.10374	0.99306
2245.05159	0.99266
2242.99944	0.99242
2240.94729	0.99260
2238.89514	0.99337
2236.84299	0.99393
2234.79084	0.99336
2232.73869	0.99275
2230.68654	0.99310
2228.63439	0.99360
2226.58224	0.99355
2224.53009	0.99342
2222.47794	0.99377
2220.42579	0.99434
2218.37364	0.99475
2216.32149	0.99444
2214.26934	0.99357
2212.21719	0.99333
2210.16504	0.99404
2208.11290	0.99467
2206.06075	0.99433
2204.00860	0.99375
2201.95645	0.99350
2199.90430	0.99352
2197.85215	0.99410
2195.80000	0.99508
2193.74785	0.99563
2191.69570	0.99536
2189.64355	0.99543
2187.59140	0.99609
2185.53925	0.99609
2183.48710	0.99553
2181.43495	0.99511
2179.38280	0.99499
2177.33065	0.99552
2175.27850	0.99636
2173.22635	0.99692
2171.17420	0.99704
2169.12205	0.99712
2167.06990	0.99820
2165.01776	0.99972
2162.96561	0.99978
2160.91346	0.99910
2158.86131	0.99945
2156.80916	1.00000
2154.75701	0.99907
2152.70486	0.99747
2150.65271	0.99659
2148.60056	0.99582
2146.54841	0.99503
2144.49626	0.99484
2142.44411	0.99500
2140.39196	0.99489
2138.33981	0.99439
2136.28766	0.99385
2134.23551	0.99347
2132.18336	0.99361
2130.13121	0.99431
2128.07906	0.99481
2126.02691	0.99453
2123.97476	0.99380
2121.92262	0.99328
2119.87047	0.99342
2117.81832	0.99404
2115.76617	0.99441
2113.71402	0.99452
2111.66187	0.99503
2109.60972	0.99536
2107.55757	0.99498
2105.50542	0.99458
2103.45327	0.99421
2101.40112	0.99385
2099.34897	0.99413
2097.29682	0.99459
2095.24467	0.99457
2093.19252	0.99449
2091.14037	0.99452
2089.08822	0.99448
2087.03607	0.99429
2084.98392	0.99398
2082.93177	0.99428
2080.87962	0.99573
2078.82747	0.99697
2076.77533	0.99650
2074.72318	0.99550
2072.67103	0.99524
2070.61888	0.99530
2068.56673	0.99528
2066.51458	0.99471
2064.46243	0.99400
2062.41028	0.99402
2060.35813	0.99470
2058.30598	0.99547
2056.25383	0.99547
2054.20168	0.99466
2052.14953	0.99403
2050.09738	0.99402
2048.04523	0.99436
2045.99308	0.99467
2043.94093	0.99457
2041.88878	0.99421
2039.83663	0.99492
2037.78448	0.99627
2035.73233	0.99678
2033.68019	0.99732
2031.62804	0.99783
2029.57589	0.99751
2027.52374	0.99761
2025.47159	0.99806
2023.41944	0.99793
2021.36729	0.99773
2019.31514	0.99776
2017.26299	0.99843
2015.21084	0.99911
2013.15869	0.99825
2011.10654	0.99690
2009.05439	0.99674
2007.00224	0.99768
2004.95009	0.99835
2002.89794	0.99798
2000.84579	0.99738
1998.79364	0.99695
1996.74149	0.99671
1994.68934	0.99712
1992.63719	0.99768
1990.58505	0.99833
1988.53290	0.99932
1986.48075	0.99910
1984.42860	0.99746
1982.37645	0.99619
1980.32430	0.99629
1978.27215	0.99710
1976.22000	0.99764
1974.16785	0.99782
1972.11570	0.99778
1970.06355	0.99819
1968.01140	0.99934
1965.95925	1.00000
1963.90710	0.99987
1961.85495	0.99979
1959.80280	0.99960
1957.75065	0.99885
1955.69850	0.99843
1953.64635	0.99898
1951.59420	0.99940
1949.54205	0.99889
1947.48990	0.99777
1945.43776	0.99662
1943.38561	0.99606
1941.33346	0.99595
1939.28131	0.99597
1937.22916	0.99596
1935.17701	0.99590
1933.12486	0.99605
1931.07271	0.99625
1929.02056	0.99640
1926.96841	0.99682
1924.91626	0.99704
1922.86411	0.99649
1920.81196	0.99612
1918.75981	0.99623
1916.70766	0.99649
1914.65551	0.99687
1912.60336	0.99698
1910.55121	0.99701
1908.49906	0.99729
1906.44691	0.99753
1904.39476	0.99775
1902.34262	0.99798
1900.29047	0.99803
1898.23832	0.99796
1896.18617	0.99799
1894.13402	0.99828
1892.08187	0.99867
1890.02972	0.99877
1887.97757	0.99859
1885.92542	0.99847
1883.87327	0.99830
1881.82112	0.99790
1879.76897	0.99770
1877.71682	0.99796
1875.66467	0.99835
1873.61252	0.99845
1871.56037	0.99856
1869.50822	0.99903
1867.45607	0.99890
1865.40392	0.99814
1863.35177	0.99788
1861.29962	0.99813
1859.24748	0.99845
1857.19533	0.99865
1855.14318	0.99864
1853.09103	0.99862
1851.03888	0.99871
1848.98673	0.99867
1846.93458	0.99861
1844.88243	0.99872
1842.83028	0.99878
1840.77813	0.99881
1838.72598	0.99877
1836.67383	0.99853
1834.62168	0.99840
1832.56953	0.99840
1830.51738	0.99836
1828.46523	0.99848
1826.41308	0.99881
1824.36093	0.99888
1822.30878	0.99872
1820.25663	0.99884
1818.20448	0.99914
1816.15233	0.99928
1814.10019	0.99925
1812.04804	0.99941
1809.99589	0.99978
1807.94374	1.00000
1805.89159	0.99993
1803.83944	0.99975
1801.78729	0.99970
1799.73514	0.99979
1797.68299	0.99980
1795.63084	0.99967
1793.57869	0.99956
1791.52654	0.99950
1789.47439	0.99950
1787.42224	0.99961
1785.37009	0.99974
1783.31794	0.99986
1781.26579	1.00000
1779.21364	1.00006
1777.16149	1.00001
1775.10934	0.99981
1773.05719	0.99957
1771.00505	0.99950
1768.95290	0.99945
1766.90075	0.99945
1764.84860	0.99961
1762.79645	0.99968
1760.74430	0.99937
1758.69215	0.99909
1756.64000	0.99904
1754.58785	0.99908
1752.53570	0.99918
1750.48355	0.99923
1748.43140	0.99914
1746.37925	0.99915
1744.32710	0.99921
1742.27495	0.99926
1740.22280	0.99937
1738.17065	0.99939
1736.11850	0.99948
1734.06635	0.99971
1732.01420	0.99965
1729.96205	0.99955
1727.90991	0.99964
1725.85776	0.99989
1723.80561	1.00000
1721.75346	0.99993
1719.70131	0.99986
1717.64916	0.99974
1715.59701	0.99927
1713.54486	0.99859
1711.49271	0.99789
1709.44056	0.99742
1707.38841	0.99731
1705.33626	0.99716
1703.28411	0.99691
1701.23196	0.99688
1699.17981	0.99677
1697.12766	0.99617
1695.07551	0.99546
1693.02336	0.99512
1690.97121	0.99494
1688.91906	0.99469
1686.86691	0.99450
1684.81476	0.99415
1682.76262	0.99323
1680.71047	0.99246
1678.65832	0.99195
1676.60617	0.99155
1674.55402	0.99106
1672.50187	0.99063
1670.44972	0.99045
1668.39757	0.99015
1666.34542	0.98986
1664.29327	0.98985
1662.24112	0.98995
1660.18897	0.99007
1658.13682	0.99029
1656.08467	0.99062
1654.03252	0.99114
1651.98037	0.99155
1649.92822	0.99182
1647.87607	0.99235
1645.82392	0.99280
1643.77177	0.99301
1641.71962	0.99325
1639.66748	0.99356
1637.61533	0.99406
1635.56318	0.99479
1633.51103	0.99528
1631.45888	0.99566
1629.40673	0.99616
1627.35458	0.99666
1625.30243	0.99723
1623.25028	0.99778
1621.19813	0.99811
1619.14598	0.99850
1617.09383	0.99893
1615.04168	0.99899
1612.98953	0.99899
1610.93738	0.99919
1608.88523	0.99950
1606.83308	0.99966
1604.78093	0.99971
1602.72878	0.99983
1600.67663	0.99992
1598.62448	1.00002
1596.57234	1.00014
1594.52019	1.00025
1592.46804	1.00030
1590.41589	1.00032
1588.36374	1.00034
1586.31159	1.00030
1584.25944	1.00017
1582.20729	1.00001
1580.15514	0.99989
1578.10299	1.00007
1576.05084	1.00034
1573.99869	1.00013
1571.94654	1.00009
1569.89439	1.00018
1567.84224	0.99986
1565.79009	0.99944
1563.73794	0.99929
1561.68579	0.99948
1559.63364	1.00000
1557.58149	0.99974
1555.52934	0.99898
1553.47719	0.99847
1551.42505	0.99809
1549.37290	0.99780
1547.32075	0.99771
1545.26860	0.99787
1543.21645	0.99810
1541.16430	0.99834
1539.11215	0.99758
1537.06000	0.99667
1535.00785	0.99619
1532.95570	0.99548
1530.90355	0.99469
1528.85140	0.99416
1526.79925	0.99340
1524.74710	0.99255
1522.69495	0.99201
1520.64280	0.99114
1518.59065	0.99007
1516.53850	0.98869
1514.48635	0.98705
1512.43420	0.98567
1510.38205	0.98473
1508.32991	0.98355
1506.27776	0.98033
1504.22561	0.97714
1502.17346	0.97502
1500.12131	0.97241
1498.06916	0.96803
1496.01701	0.96138
1493.96486	0.95463
1491.91271	0.94751
1489.86056	0.93615
1487.80841	0.92187
1485.75626	0.90953
1483.70411	0.89874
1481.65196	0.88842
1479.59981	0.87984
1477.54766	0.87420
1475.49551	0.87074
1473.44336	0.86926
1471.39121	0.87002
1469.33906	0.87253
1467.28691	0.87605
1465.23477	0.88007
1463.18262	0.88275
1461.13047	0.88349
1459.07832	0.88275
1457.02617	0.87900
1454.97402	0.87382
1452.92187	0.86997
1450.86972	0.86615
1448.81757	0.86127
1446.76542	0.85522
1444.71327	0.84929
1442.66112	0.84394
1440.60897	0.83958
1438.55682	0.83690
1436.50467	0.83524
1434.45252	0.83397
1432.40037	0.83227
1430.34822	0.82875
1428.29607	0.82352
1426.24392	0.81829
1424.19177	0.81367
1422.13962	0.81082
1420.08748	0.81074
1418.03533	0.81307
1415.98318	0.81633
1413.93103	0.82005
1411.87888	0.82452
1409.82673	0.82940
1407.77458	0.83418
1405.72243	0.83899
1403.67028	0.84389
1401.61813	0.84829
1399.56598	0.85231
1397.51383	0.85556
1395.46168	0.85728
1393.40953	0.85741
1391.35738	0.85634
1389.30523	0.85420
1387.25308	0.85077
1385.20093	0.84709
1383.14878	0.84407
1381.09663	0.84128
1379.04448	0.83843
1376.99234	0.83580
1374.94019	0.83376
1372.88804	0.83280
1370.83589	0.83344
1368.78374	0.83553
1366.73159	0.83841
1364.67944	0.84137
1362.62729	0.84381
1360.57514	0.84475
1358.52299	0.84435
1356.47084	0.84356
1354.41869	0.84305
1352.36654	0.84348
1350.31439	0.84514
1348.26224	0.84777
1346.21009	0.85096
1344.15794	0.85432
1342.10579	0.85753
1340.05364	0.86065
1338.00149	0.86367
1335.94934	0.86632
1333.89720	0.86878
1331.84505	0.87106
1329.79290	0.87322
1327.74075	0.87542
1325.68860	0.87774
1323.63645	0.88000
1321.58430	0.88197
1319.53215	0.88380
1317.48000	0.88587
1315.42785	0.88843
1313.37570	0.89143
1311.32355	0.89462
1309.27140	0.89786
1307.21925	0.90105
1305.16710	0.90393
1303.11495	0.90626
1301.06280	0.90787
1299.01065	0.90867
1296.95850	0.90878
1294.90635	0.90866
1292.85420	0.90882
1290.80205	0.90970
1288.74991	0.91173
1286.69776	0.91510
1284.64561	0.91970
1282.59346	0.92516
1280.54131	0.93103
1278.48916	0.93690
1276.43701	0.94227
1274.38486	0.94676
1272.33271	0.95035
1270.28056	0.95318
1268.22841	0.95520
1266.17626	0.95647
1264.12411	0.95729
1262.07196	0.95765
1260.01981	0.95749
1257.96766	0.95691
1255.91551	0.95614
1253.86336	0.95529
1251.81121	0.95415
1249.75906	0.95264
1247.70691	0.95093
1245.65477	0.94891
1243.60262	0.94652
1241.55047	0.94396
1239.49832	0.94154
1237.44617	0.93956
1235.39402	0.93819
1233.34187	0.93749
1231.28972	0.93754
1229.23757	0.93836
1227.18542	0.93975
1225.13327	0.94140
1223.08112	0.94296
1221.02897	0.94436
1218.97682	0.94557
1216.92467	0.94649
1214.87252	0.94710
1212.82037	0.94752
1210.76822	0.94774
1208.71607	0.94768
1206.66392	0.94720
1204.61177	0.94626
1202.55963	0.94480
1200.50748	0.94306
1198.45533	0.94144
1196.40318	0.93988
1194.35103	0.93822
1192.29888	0.93692
1190.24673	0.93636
1188.19458	0.93624
1186.14243	0.93656
1184.09028	0.93784
1182.03813	0.94030
1179.98598	0.94357
1177.93383	0.94744
1175.88168	0.95213
1173.82953	0.95746
1171.77738	0.96314
1169.72523	0.96905
1167.67308	0.97508
1165.62093	0.98083
1163.56878	0.98579
1161.51663	0.98990
1159.46448	0.99339
1157.41234	0.99608
1155.36019	0.99794
1153.30804	0.99929
1151.25589	1.00000
1149.20374	0.99981
1147.15159	0.99866
1145.09944	0.99677
1143.04729	0.99429
1140.99514	0.99113
1138.94299	0.98692
1136.89084	0.98114
1134.83869	0.97322
1132.78654	0.96266
1130.73439	0.94948
1128.68224	0.93419
1126.63009	0.91783
1124.57794	0.90169
1122.52579	0.88677
1120.47364	0.87394
1118.42149	0.86377
1116.36934	0.85617
1114.31720	0.85073
1112.26505	0.84674
1110.21290	0.84314
1108.16075	0.83896
1106.10860	0.83394
1104.05645	0.82799
1102.00430	0.82091
1099.95215	0.81331
1097.90000	0.80628
1095.84785	0.80026
1093.79570	0.79494
1091.74355	0.78938
1089.69140	0.78198
1087.63925	0.77100
1085.58710	0.75483
1083.53495	0.73253
1081.48280	0.70460
1079.43065	0.67232
1077.37850	0.63734
1075.32635	0.60130
1073.27420	0.56489
1071.22206	0.52810
1069.16991	0.49132
1067.11776	0.45538
1065.06561	0.42162
1063.01346	0.39194
1060.96131	0.36819
1058.90916	0.35177
1056.85701	0.34333
1054.80486	0.34262
1052.75271	0.34846
1050.70056	0.35887
1048.64841	0.37190
1046.59626	0.38568
1044.54411	0.39775
1042.49196	0.40558
1040.43981	0.40793
1038.38766	0.40590
1036.33551	0.40270
1034.28336	0.40206
1032.23121	0.40738
1030.17906	0.42134
1028.12692	0.44522
1026.07477	0.47834
1024.02262	0.51843
1021.97047	0.56269
1019.91832	0.60865
1017.86617	0.65436
1015.81402	0.69843
1013.76187	0.73954
1011.70972	0.77624
1009.65757	0.80739
1007.60542	0.83215
1005.55327	0.84969
1003.50112	0.85913
1001.44897	0.85998
999.39682	0.85189
997.34467	0.83458
995.29252	0.80824
993.24037	0.77428
991.18822	0.73625
989.13607	0.69928
987.08392	0.66930
985.03177	0.65170
982.97963	0.64982
980.92748	0.66418
978.87533	0.69250
976.82318	0.73054
974.77103	0.77275
972.71888	0.81330
970.66673	0.84831
968.61458	0.87626
966.56243	0.89696
964.51028	0.91094
962.45813	0.91941
960.40598	0.92396
958.35383	0.92538
956.30168	0.92338
954.24953	0.91690
952.19738	0.90409
950.14523	0.88379
948.09308	0.85711
946.04093	0.82765
943.98878	0.80061
941.93663	0.78098
939.88449	0.77152
937.83234	0.77188
935.78019	0.77848
933.72804	0.78575
931.67589	0.78848
929.62374	0.78354
927.57159	0.77088
925.51944	0.75383
923.46729	0.73749
921.41514	0.72658
919.36299	0.72466
917.31084	0.73356
915.25869	0.75333
913.20654	0.78184
911.15439	0.81525
909.10224	0.84965
907.05009	0.88202
904.99794	0.91019
902.94579	0.93317
900.89364	0.95151
898.84149	0.96586
896.78935	0.97632
894.73720	0.98353
892.68505	0.98885
890.63290	0.99303
888.58075	0.99616
886.52860	0.99827
884.47645	0.99895
882.42430	0.99777
880.37215	0.99493
878.32000	0.99103
876.26785	0.98649
874.21570	0.98168
872.16355	0.97709
870.11140	0.97358
868.05925	0.97255
866.00710	0.97499
863.95495	0.98038
861.90280	0.98685
859.85065	0.99278
857.79850	0.99744
855.74635	1.00001
853.69420	1.00008
851.64206	0.99887
849.58991	0.99789
847.53776	0.99758
845.48561	0.99802
843.43346	0.99888
841.38131	0.99960
839.32916	1.00000
837.27701	1.00009
835.22486	0.99937
833.17271	0.99779
831.12056	0.99547
829.06841	0.99218
827.01626	0.98806
824.96411	0.98370
822.91196	0.97889
820.85981	0.97358
818.80766	0.96876
816.75551	0.96503
814.70336	0.96198
812.65121	0.95936
810.59906	0.95714
808.54692	0.95486
806.49477	0.95180
804.44262	0.94756
802.39047	0.94283
800.33832	0.93842
798.28617	0.93383
796.23402	0.92862
794.18187	0.92299
792.12972	0.91694
790.07757	0.91092
788.02542	0.90581
785.97327	0.90148
783.92112	0.89712
781.86897	0.89365
779.81682	0.89241
777.76467	0.89279
775.71252	0.89431
773.66037	0.89698
771.60822	0.89984
769.55607	0.90176
767.50392	0.90252
765.45178	0.90235
763.39963	0.90131
761.34748	0.89955
759.29533	0.89770
757.24318	0.89648
755.19103	0.89584
753.13888	0.89470
751.08673	0.89250
749.03458	0.88992
746.98243	0.88737
744.93028	0.88471
742.87813	0.88204
740.82598	0.87912
738.77383	0.87596
736.72168	0.87303
734.66953	0.87002
732.61738	0.86667
730.56523	0.86323
728.51308	0.85980
726.46093	0.85637
724.40878	0.85315
722.35663	0.85007
720.30449	0.84683
718.25234	0.84374
716.20019	0.84078
714.14804	0.83724
712.09589	0.83335
710.04374	0.82976
707.99159	0.82615
705.93944	0.82240
703.88729	0.81925
701.83514	0.81659
699.78299	0.81365
697.73084	0.81046
695.67869	0.80725
693.62654	0.80417
691.57439	0.80128
689.52224	0.79845
687.47009	0.79587
685.41794	0.79321
683.36579	0.78988
681.31364	0.78649
679.26149	0.78368
677.20935	0.78105
675.15720	0.77856
673.10505	0.77646
671.05290	0.77509
669.00075	0.77365
666.94860	0.77076
664.89645	0.76833
662.84430	0.76644
660.79215	0.76394
658.74000	0.76104
656.68785	0.75807
654.63570	0.75543
652.58355	0.75403
650.53140	0.75375
648.47925	0.75306
646.42710	0.75112
644.37495	0.74904
642.32280	0.74793
640.27065	0.74711
638.21850	0.74595
636.16635	0.74491
634.11421	0.74423
632.06206	0.74340
630.00991	0.74217
627.95776	0.74117
625.90561	0.74080
623.85346	0.74036
621.80131	0.73976
619.74916	0.73975
617.69701	0.74023
615.64486	0.74118
613.59271	0.74278
611.54056	0.74442
609.48841	0.74569
607.43626	0.74676
605.38411	0.74770
603.33196	0.74849
601.27981	0.74937
599.22766	0.75059
597.17551	0.75206
595.12336	0.75357
593.07121	0.75498
591.01906	0.75599
588.96692	0.75715
586.91477	0.75847
584.86262	0.75933
582.81047	0.76086
580.75832	0.76353
578.70617	0.76633
576.65402	0.76873
574.60187	0.77042
572.54972	0.77239
570.49757	0.77536
568.44542	0.77815
566.39327	0.78062
564.34112	0.78362
562.28897	0.78725
560.23682	0.79079
558.18467	0.79312
556.13252	0.79471
554.08037	0.79667
552.02822	0.79940
549.97607	0.80224
547.92392	0.80358
545.87178	0.80395
543.81963	0.80472
541.76748	0.80437
539.71533	0.80021
537.66318	0.79146
535.61103	0.77936
533.55888	0.76509
531.50673	0.74931
529.45458	0.73427
527.40243	0.72397
525.35028	0.72155
523.29813	0.72769
521.24598	0.74069
519.19383	0.75717
517.14168	0.77352
515.08953	0.78743
513.03738	0.79838
510.98523	0.80781
508.93308	0.81688
506.88093	0.82528
504.82878	0.83229
502.77664	0.83860
500.72449	0.84514
498.67234	0.85206
496.62019	0.85850
494.56804	0.86282
492.51589	0.86530
490.46374	0.86830
488.41159	0.87213
486.35944	0.87508
484.30729	0.87753
482.25514	0.88010
480.20299	0.88266
478.15084	0.88681
476.09869	0.89365
474.04654	0.90307
471.99439	0.91433
469.94224	0.92375
467.89009	0.93021
465.83794	0.93571
463.78579	0.94124
461.73364	0.94615
459.68149	0.94858
457.62935	0.94897
455.57720	0.95037
453.52505	0.95273
451.47290	0.95380
449.42075	0.95384
447.36860	0.95276
445.31645	0.94969
443.26430	0.94709
441.21215	0.94537
439.16000	0.94245
437.10785	0.94005
435.05570	0.93979
433.00355	0.93971
430.95140	0.94055
428.89925	0.94333
426.84710	0.94647
424.79495	0.94939
422.74280	0.95079
420.69065	0.95283
418.63850	0.96016
416.58635	0.96857
414.53421	0.97278
412.48206	0.97458
410.42991	0.97696
408.37776	0.97865
406.32561	0.97980
404.27346	0.98424
402.22131	0.98961
400.16916	0.99466
398.11701	1.00000
