3997.58729	1.00000
3995.53514	1.00000
3993.48299	0.99999
3991.43084	0.99964
3989.37869	0.99927
3987.32654	0.99930
3985.27439	0.99946
3983.22224	0.99925
3981.17009	0.99905
3979.11794	0.99915
3977.06579	0.99911
3975.01364	0.99898
3972.96149	0.99895
3970.90934	0.99892
3968.85719	0.99883
3966.80504	0.99861
3964.75289	0.99845
3962.70074	0.99855
3960.64859	0.99872
3958.59645	0.99866
3956.54430	0.99843
3954.49215	0.99836
3952.44000	0.99851
3950.38785	0.99880
3948.33570	0.99891
3946.28355	0.99854
3944.23140	0.99810
3942.17925	0.99808
3940.12710	0.99842
3938.07495	0.99858
3936.02280	0.99849
3933.97065	0.99865
3931.91850	0.99900
3929.86635	0.99903
3927.81420	0.99876
3925.76205	0.99847
3923.70990	0.99826
3921.65775	0.99836
3919.60560	0.99872
3917.55345	0.99881
3915.50131	0.99844
3913.44916	0.99807
3911.39701	0.99793
3909.34486	0.99796
3907.29271	0.99829
3905.24056	0.99884
3903.18841	0.99892
3901.13626	0.99844
3899.08411	0.99816
3897.03196	0.99810
3894.97981	0.99799
3892.92766	0.99795
3890.87551	0.99788
3888.82336	0.99775
3886.77121	0.99775
3884.71906	0.99773
3882.66691	0.99778
3880.61476	0.99799
3878.56261	0.99783
3876.51046	0.99760
3874.45831	0.99764
3872.40616	0.99791
3870.35402	0.99845
3868.30187	0.99871
3866.24972	0.99858
3864.19757	0.99822
3862.14542	0.99776
3860.09327	0.99765
3858.04112	0.99789
3855.98897	0.99838
3853.93682	0.99894
3851.88467	0.99861
3849.83252	0.99777
3847.78037	0.99737
3845.72822	0.99733
3843.67607	0.99745
3841.62392	0.99760
3839.57177	0.99769
3837.51962	0.99744
3835.46747	0.99704
3833.41532	0.99694
3831.36317	0.99697
3829.31102	0.99696
3827.25888	0.99699
3825.20673	0.99719
3823.15458	0.99773
3821.10243	0.99835
3819.05028	0.99834
3816.99813	0.99809
3814.94598	0.99767
3812.89383	0.99701
3810.84168	0.99665
3808.78953	0.99702
3806.73738	0.99776
3804.68523	0.99803
3802.63308	0.99797
3800.58093	0.99773
3798.52878	0.99743
3796.47663	0.99727
3794.42448	0.99704
3792.37233	0.99673
3790.32018	0.99652
3788.26803	0.99662
3786.21588	0.99701
3784.16374	0.99724
3782.11159	0.99715
3780.05944	0.99696
3778.00729	0.99669
3775.95514	0.99653
3773.90299	0.99662
3771.85084	0.99681
3769.79869	0.99689
3767.74654	0.99679
3765.69439	0.99662
3763.64224	0.99632
3761.59009	0.99626
3759.53794	0.99668
3757.48579	0.99699
3755.43364	0.99713
3753.38149	0.99774
3751.32934	0.99868
3749.27719	0.99897
3747.22504	0.99875
3745.17289	0.99845
3743.12074	0.99798
3741.06859	0.99758
3739.01645	0.99749
3736.96430	0.99796
3734.91215	0.99888
3732.86000	0.99892
3730.80785	0.99797
3728.75570	0.99717
3726.70355	0.99700
3724.65140	0.99722
3722.59925	0.99740
3720.54710	0.99744
3718.49495	0.99734
3716.44280	0.99714
3714.39065	0.99716
3712.33850	0.99762
3710.28635	0.99790
3708.23420	0.99744
3706.18205	0.99698
3704.12990	0.99685
3702.07775	0.99691
3700.02560	0.99693
3697.97345	0.99686
3695.92131	0.99672
3693.86916	0.99675
3691.81701	0.99729
3689.76486	0.99787
3687.71271	0.99753
3685.66056	0.99674
3683.60841	0.99634
3681.55626	0.99635
3679.50411	0.99640
3677.45196	0.99644
3675.39981	0.99628
3673.34766	0.99597
3671.29551	0.99626
3669.24336	0.99656
3667.19121	0.99613
3665.13906	0.99580
3663.08691	0.99567
3661.03476	0.99522
3658.98261	0.99465
3656.93046	0.99441
3654.87831	0.99461
3652.82617	0.99517
3650.77402	0.99596
3648.72187	0.99600
3646.66972	0.99490
3644.61757	0.99408
3642.56542	0.99364
3640.51327	0.99316
3638.46112	0.99265
3636.40897	0.99233
3634.35682	0.99232
3632.30467	0.99275
3630.25252	0.99330
3628.20037	0.99260
3626.14822	0.99082
3624.09607	0.98976
3622.04392	0.98989
3619.99177	0.99048
3617.93962	0.99008
3615.88747	0.98920
3613.83532	0.98868
3611.78317	0.98818
3609.73102	0.98738
3607.67888	0.98630
3605.62673	0.98525
3603.57458	0.98460
3601.52243	0.98445
3599.47028	0.98443
3597.41813	0.98396
3595.36598	0.98267
3593.31383	0.98104
3591.26168	0.98024
3589.20953	0.98023
3587.15738	0.97970
3585.10523	0.97812
3583.05308	0.97658
3581.00093	0.97543
3578.94878	0.97461
3576.89663	0.97387
3574.84448	0.97287
3572.79233	0.97167
3570.74018	0.97044
3568.68803	0.96928
3566.63588	0.96808
3564.58374	0.96672
3562.53159	0.96533
3560.47944	0.96370
3558.42729	0.96189
3556.37514	0.96052
3554.32299	0.95936
3552.27084	0.95755
3550.21869	0.95539
3548.16654	0.95365
3546.11439	0.95209
3544.06224	0.95022
3542.01009	0.94813
3539.95794	0.94592
3537.90579	0.94353
3535.85364	0.94117
3533.80149	0.93911
3531.74934	0.93725
3529.69719	0.93543
3527.64504	0.93338
3525.59289	0.93114
3523.54074	0.92878
3521.48860	0.92610
3519.43645	0.92335
3517.38430	0.92067
3515.33215	0.91807
3513.28000	0.91542
3511.22785	0.91254
3509.17570	0.90969
3507.12355	0.90718
3505.07140	0.90473
3503.01925	0.90199
3500.96710	0.89919
3498.91495	0.89637
3496.86280	0.89322
3494.81065	0.89004
3492.75850	0.88731
3490.70635	0.88491
3488.65420	0.88240
3486.60205	0.87953
3484.54990	0.87662
3482.49775	0.87378
3480.44560	0.87074
3478.39345	0.86764
3476.34131	0.86494
3474.28916	0.86248
3472.23701	0.85995
3470.18486	0.85746
3468.13271	0.85486
3466.08056	0.85209
3464.02841	0.84940
3461.97626	0.84685
3459.92411	0.84422
3457.87196	0.84157
3455.81981	0.83910
3453.76766	0.83672
3451.71551	0.83438
3449.66336	0.83205
3447.61121	0.82971
3445.55906	0.82754
3443.50691	0.82558
3441.45476	0.82351
3439.40261	0.82126
3437.35046	0.81902
3435.29831	0.81682
3433.24617	0.81468
3431.19402	0.81278
3429.14187	0.81104
3427.08972	0.80902
3425.03757	0.80680
3422.98542	0.80483
3420.93327	0.80319
3418.88112	0.80139
3416.82897	0.79947
3414.77682	0.79784
3412.72467	0.79631
3410.67252	0.79458
3408.62037	0.79269
3406.56822	0.79106
3404.51607	0.78973
3402.46392	0.78817
3400.41177	0.78643
3398.35962	0.78506
3396.30747	0.78398
3394.25532	0.78279
3392.20317	0.78142
3390.15103	0.77999
3388.09888	0.77859
3386.04673	0.77734
3383.99458	0.77626
3381.94243	0.77525
3379.89028	0.77417
3377.83813	0.77285
3375.78598	0.77151
3373.73383	0.77049
3371.68168	0.76977
3369.62953	0.76911
3367.57738	0.76845
3365.52523	0.76771
3363.47308	0.76688
3361.42093	0.76615
3359.36878	0.76545
3357.31663	0.76482
3355.26448	0.76439
3353.21233	0.76404
3351.16018	0.76367
3349.10803	0.76315
3347.05588	0.76256
3345.00374	0.76233
3342.95159	0.76238
3340.89944	0.76234
3338.84729	0.76233
3336.79514	0.76250
3334.74299	0.76263
3332.69084	0.76262
3330.63869	0.76267
3328.58654	0.76293
3326.53439	0.76337
3324.48224	0.76387
3322.43009	0.76441
3320.37794	0.76490
3318.32579	0.76535
3316.27364	0.76606
3314.22149	0.76708
3312.16934	0.76816
3310.11719	0.76914
3308.06504	0.77000
3306.01289	0.77088
3303.96074	0.77186
3301.90860	0.77287
3299.85645	0.77404
3297.80430	0.77536
3295.75215	0.77664
3293.70000	0.77783
3291.64785	0.77897
3289.59570	0.78022
3287.54355	0.78165
3285.49140	0.78300
3283.43925	0.78428
3281.38710	0.78574
3279.33495	0.78743
3277.28280	0.78912
3275.23065	0.79072
3273.17850	0.79244
3271.12635	0.79416
3269.07420	0.79575
3267.02205	0.79738
3264.96990	0.79918
3262.91775	0.80119
3260.86560	0.80331
3258.81346	0.80527
3256.76131	0.80702
3254.70916	0.80874
3252.65701	0.81044
3250.60486	0.81226
3248.55271	0.81451
3246.50056	0.81695
3244.44841	0.81923
3242.39626	0.82139
3240.34411	0.82351
3238.29196	0.82561
3236.23981	0.82769
3234.18766	0.82982
3232.13551	0.83229
3230.08336	0.83488
3228.03121	0.83719
3225.97906	0.83941
3223.92691	0.84178
3221.87476	0.84415
3219.82261	0.84644
3217.77046	0.84876
3215.71832	0.85107
3213.66617	0.85342
3211.61402	0.85588
3209.56187	0.85812
3207.50972	0.86013
3205.45757	0.86230
3203.40542	0.86464
3201.35327	0.86688
3199.30112	0.86911
3197.24897	0.87146
3195.19682	0.87374
3193.14467	0.87579
3191.09252	0.87758
3189.04037	0.87944
3186.98822	0.88171
3184.93607	0.88424
3182.88392	0.88667
3180.83177	0.88889
3178.77962	0.89092
3176.72747	0.89283
3174.67532	0.89464
3172.62317	0.89644
3170.57103	0.89828
3168.51888	0.90014
3166.46673	0.90200
3164.41458	0.90375
3162.36243	0.90535
3160.31028	0.90701
3158.25813	0.90880
3156.20598	0.91053
3154.15383	0.91216
3152.10168	0.91391
3150.04953	0.91568
3147.99738	0.91713
3145.94523	0.91851
3143.89308	0.92010
3141.84093	0.92175
3139.78878	0.92329
3137.73663	0.92473
3135.68448	0.92619
3133.63233	0.92764
3131.58018	0.92892
3129.52803	0.93008
3127.47589	0.93124
3125.42374	0.93234
3123.37159	0.93355
3121.31944	0.93487
3119.26729	0.93600
3117.21514	0.93687
3115.16299	0.93780
3113.11084	0.93886
3111.05869	0.93984
3109.00654	0.94079
3106.95439	0.94182
3104.90224	0.94289
3102.85009	0.94386
3100.79794	0.94467
3098.74579	0.94548
3096.69364	0.94645
3094.64149	0.94735
3092.58934	0.94804
3090.53719	0.94878
3088.48504	0.94958
3086.43289	0.95023
3084.38075	0.95078
3082.32860	0.95141
3080.27645	0.95224
3078.22430	0.95310
3076.17215	0.95360
3074.12000	0.95394
3072.06785	0.95461
3070.01570	0.95546
3067.96355	0.95613
3065.91140	0.95658
3063.85925	0.95704
3061.80710	0.95756
3059.75495	0.95817
3057.70280	0.95882
3055.65065	0.95919
3053.59850	0.95938
3051.54635	0.95982
3049.49420	0.96040
3047.44205	0.96083
3045.38990	0.96105
3043.33775	0.96133
3041.28560	0.96173
3039.23346	0.96203
3037.18131	0.96223
3035.12916	0.96242
3033.07701	0.96268
3031.02486	0.96295
3028.97271	0.96312
3026.92056	0.96320
3024.86841	0.96320
3022.81626	0.96308
3020.76411	0.96295
3018.71196	0.96286
3016.65981	0.96267
3014.60766	0.96249
3012.55551	0.96246
3010.50336	0.96238
3008.45121	0.96215
3006.39906	0.96177
3004.34691	0.96120
3002.29476	0.96045
3000.24261	0.95955
2998.19046	0.95852
2996.13832	0.95718
2994.08617	0.95547
2992.03402	0.95357
2989.98187	0.95120
2987.92972	0.94788
2985.87757	0.94364
2983.82542	0.93866
2981.77327	0.93276
2979.72112	0.92575
2977.66897	0.91774
2975.61682	0.90898
2973.56467	0.89947
2971.51252	0.88917
2969.46037	0.87820
2967.40822	0.86673
2965.35607	0.85505
2963.30392	0.84334
2961.25177	0.83159
2959.19962	0.81981
2957.14747	0.80811
2955.09532	0.79668
2953.04318	0.78573
2950.99103	0.77575
2948.93888	0.76739
2946.88673	0.76117
2944.83458	0.75736
2942.78243	0.75600
2940.73028	0.75651
2938.67813	0.75776
2936.62598	0.75907
2934.57383	0.76030
2932.52168	0.76126
2930.46953	0.76219
2928.41738	0.76370
2926.36523	0.76598
2924.31308	0.76895
2922.26093	0.77275
2920.20878	0.77757
2918.15663	0.78321
2916.10448	0.78924
2914.05233	0.79540
2912.00018	0.80128
2909.94803	0.80639
2907.89589	0.81023
2905.84374	0.81235
2903.79159	0.81249
2901.73944	0.81071
2899.68729	0.80728
2897.63514	0.80234
2895.58299	0.79584
2893.53084	0.78786
2891.47869	0.77871
2889.42654	0.76858
2887.37439	0.75789
2885.32224	0.74740
2883.27009	0.73727
2881.21794	0.72742
2879.16579	0.71811
2877.11364	0.70980
2875.06149	0.70278
2873.00934	0.69710
2870.95719	0.69275
2868.90504	0.68970
2866.85289	0.68820
2864.80075	0.68862
2862.74860	0.69117
2860.69645	0.69575
2858.64430	0.70220
2856.59215	0.71051
2854.54000	0.72065
2852.48785	0.73260
2850.43570	0.74598
2848.38355	0.76006
2846.33140	0.77450
2844.27925	0.78912
2842.22710	0.80341
2840.17495	0.81671
2838.12280	0.82876
2836.07065	0.83959
2834.01850	0.84916
2831.96635	0.85769
2829.91420	0.86529
2827.86205	0.87183
2825.80990	0.87726
2823.75775	0.88191
2821.70561	0.88605
2819.65346	0.88937
2817.60131	0.89160
2815.54916	0.89298
2813.49701	0.89376
2811.44486	0.89413
2809.39271	0.89435
2807.34056	0.89462
2805.28841	0.89525
2803.23626	0.89648
2801.18411	0.89826
2799.13196	0.90064
2797.07981	0.90374
2795.02766	0.90747
2792.97551	0.91154
2790.92336	0.91566
2788.87121	0.91966
2786.81906	0.92328
2784.76691	0.92647
2782.71476	0.92929
2780.66261	0.93172
2778.61046	0.93375
2776.55832	0.93540
2774.50617	0.93667
2772.45402	0.93764
2770.40187	0.93847
2768.34972	0.93923
2766.29757	0.93989
2764.24542	0.94049
2762.19327	0.94110
2760.14112	0.94157
2758.08897	0.94195
2756.03682	0.94236
2753.98467	0.94275
2751.93252	0.94316
2749.88037	0.94350
2747.82822	0.94362
2745.77607	0.94384
2743.72392	0.94439
2741.67177	0.94492
2739.61962	0.94533
2737.56747	0.94575
2735.51532	0.94615
2733.46318	0.94666
2731.41103	0.94719
2729.35888	0.94752
2727.30673	0.94783
2725.25458	0.94841
2723.20243	0.94921
2721.15028	0.94998
2719.09813	0.95059
2717.04598	0.95131
2714.99383	0.95238
2712.94168	0.95357
2710.88953	0.95468
2708.83738	0.95571
2706.78523	0.95667
2704.73308	0.95761
2702.68093	0.95843
2700.62878	0.95893
2698.57663	0.95936
2696.52448	0.96006
2694.47233	0.96091
2692.42018	0.96165
2690.36804	0.96216
2688.31589	0.96263
2686.26374	0.96343
2684.21159	0.96440
2682.15944	0.96503
2680.10729	0.96544
2678.05514	0.96603
2676.00299	0.96685
2673.95084	0.96775
2671.89869	0.96853
2669.84654	0.96900
2667.79439	0.96933
2665.74224	0.96982
2663.69009	0.97032
2661.63794	0.97060
2659.58579	0.97081
2657.53364	0.97112
2655.48149	0.97140
2653.42934	0.97162
2651.37719	0.97191
2649.32504	0.97227
2647.27289	0.97244
2645.22075	0.97257
2643.16860	0.97299
2641.11645	0.97354
2639.06430	0.97383
2637.01215	0.97391
2634.96000	0.97415
2632.90785	0.97446
2630.85570	0.97466
2628.80355	0.97495
2626.75140	0.97532
2624.69925	0.97570
2622.64710	0.97621
2620.59495	0.97665
2618.54280	0.97669
2616.49065	0.97643
2614.43850	0.97635
2612.38635	0.97683
2610.33420	0.97745
2608.28205	0.97755
2606.22990	0.97751
2604.17775	0.97784
2602.12561	0.97822
2600.07346	0.97849
2598.02131	0.97883
2595.96916	0.97917
2593.91701	0.97928
2591.86486	0.97915
2589.81271	0.97930
2587.76056	0.97995
2585.70841	0.98035
2583.65626	0.98019
2581.60411	0.98018
2579.55196	0.98035
2577.49981	0.98052
2575.44766	0.98102
2573.39551	0.98154
2571.34336	0.98164
2569.29121	0.98152
2567.23906	0.98132
2565.18691	0.98113
2563.13476	0.98111
2561.08261	0.98125
2559.03047	0.98138
2556.97832	0.98149
2554.92617	0.98157
2552.87402	0.98157
2550.82187	0.98156
2548.76972	0.98169
2546.71757	0.98199
2544.66542	0.98228
2542.61327	0.98246
2540.56112	0.98252
2538.50897	0.98261
2536.45682	0.98283
2534.40467	0.98284
2532.35252	0.98257
2530.30037	0.98233
2528.24822	0.98226
2526.19607	0.98250
2524.14392	0.98297
2522.09177	0.98334
2520.03962	0.98339
2517.98747	0.98340
2515.93532	0.98346
2513.88318	0.98338
2511.83103	0.98337
2509.77888	0.98334
2507.72673	0.98314
2505.67458	0.98325
2503.62243	0.98376
2501.57028	0.98417
2499.51813	0.98430
2497.46598	0.98445
2495.41383	0.98460
2493.36168	0.98438
2491.30953	0.98415
2489.25738	0.98442
2487.20523	0.98495
2485.15308	0.98526
2483.10093	0.98524
2481.04878	0.98520
2478.99663	0.98526
2476.94448	0.98538
2474.89233	0.98558
2472.84018	0.98567
2470.78804	0.98565
2468.73589	0.98587
2466.68374	0.98617
2464.63159	0.98620
2462.57944	0.98627
2460.52729	0.98659
2458.47514	0.98678
2456.42299	0.98668
2454.37084	0.98669
2452.31869	0.98694
2450.26654	0.98712
2448.21439	0.98732
2446.16224	0.98773
2444.11009	0.98818
2442.05794	0.98842
2440.00579	0.98836
2437.95364	0.98825
2435.90149	0.98814
2433.84934	0.98803
2431.79719	0.98811
2429.74504	0.98831
2427.69290	0.98844
2425.64075	0.98850
2423.58860	0.98852
2421.53645	0.98860
2419.48430	0.98868
2417.43215	0.98863
2415.38000	0.98850
2413.32785	0.98846
2411.27570	0.98851
2409.22355	0.98864
2407.17140	0.98869
2405.11925	0.98840
2403.06710	0.98816
2401.01495	0.98835
2398.96280	0.98856
2396.91065	0.98854
2394.85850	0.98837
2392.80635	0.98822
2390.75420	0.98832
2388.70205	0.98860
2386.64990	0.98878
2384.59775	0.98871
2382.54561	0.98859
2380.49346	0.98867
2378.44131	0.98875
2376.38916	0.98873
2374.33701	0.98860
2372.28486	0.98820
2370.23271	0.98798
2368.18056	0.98827
2366.12841	0.98867
2364.07626	0.98903
2362.02411	0.98907
2359.97196	0.98879
2357.91981	0.98860
2355.86766	0.98829
2353.81551	0.98790
2351.76336	0.98774
2349.71121	0.98770
2347.65906	0.98770
2345.60691	0.98796
2343.55476	0.98847
2341.50261	0.98869
2339.45047	0.98840
2337.39832	0.98821
2335.34617	0.98837
2333.29402	0.98860
2331.24187	0.98873
2329.18972	0.98873
2327.13757	0.98896
2325.08542	0.98954
2323.03327	0.98998
2320.98112	0.98999
2318.92897	0.98978
2316.87682	0.98966
2314.82467	0.98975
2312.77252	0.99004
2310.72037	0.99025
2308.66822	0.99002
2306.61607	0.98966
2304.56392	0.98968
2302.51177	0.98991
2300.45962	0.99022
2298.40747	0.99050
2296.35533	0.99058
2294.30318	0.99056
2292.25103	0.99066
2290.19888	0.99076
2288.14673	0.99054
2286.09458	0.99026
2284.04243	0.99029
2281.99028	0.99081
2279.93813	0.99179
2277.88598	0.99227
2275.83383	0.99184
2273.78168	0.99152
2271.72953	0.99196
2269.67738	0.99241
2267.62523	0.99230
2265.57308	0.99202
2263.52093	0.99199
2261.46878	0.99221
2259.41663	0.99253
2257.36448	0.99293
2255.31233	0.99321
2253.26018	0.99327
2251.20804	0.99335
2249.15589	0.99351
2247.10374	0.99362
2245.05159	0.99361
2242.99944	0.99347
2240.94729	0.99332
2238.89514	0.99350
2236.84299	0.99369
2234.79084	0.99338
2232.73869	0.99300
2230.68654	0.99316
2228.63439	0.99380
2226.58224	0.99413
2224.53009	0.99390
2222.47794	0.99353
2220.42579	0.99335
2218.37364	0.99374
2216.32149	0.99408
2214.26934	0.99373
2212.21719	0.99361
2210.16504	0.99424
2208.11290	0.99487
2206.06075	0.99482
2204.00860	0.99425
2201.95645	0.99379
2199.90430	0.99387
2197.85215	0.99405
2195.80000	0.99439
2193.74785	0.99517
2191.69570	0.99546
2189.64355	0.99523
2187.59140	0.99527
2185.53925	0.99573
2183.48710	0.99675
2181.43495	0.99741
2179.38280	0.99675
2177.33065	0.99595
2175.27850	0.99601
2173.22635	0.99629
2171.17420	0.99649
2169.12205	0.99671
2167.06990	0.99718
2165.01776	0.99802
2162.96561	0.99863
2160.91346	0.99904
2158.86131	0.99946
2156.80916	0.99917
2154.75701	0.99784
2152.70486	0.99671
2150.65271	0.99671
2148.60056	0.99676
2146.54841	0.99614
2144.49626	0.99535
2142.44411	0.99490
2140.39196	0.99481
2138.33981	0.99460
2136.28766	0.99431
2134.23551	0.99400
2132.18336	0.99384
2130.13121	0.99430
2128.07906	0.99477
2126.02691	0.99450
2123.97476	0.99362
2121.92262	0.99293
2119.87047	0.99309
2117.81832	0.99345
2115.76617	0.99354
2113.71402	0.99383
2111.66187	0.99441
2109.60972	0.99477
2107.55757	0.99474
2105.50542	0.99434
2103.45327	0.99372
2101.40112	0.99346
2099.34897	0.99369
2097.29682	0.99397
2095.24467	0.99429
2093.19252	0.99462
2091.14037	0.99442
2089.08822	0.99405
2087.03607	0.99407
2084.98392	0.99415
2082.93177	0.99410
2080.87962	0.99447
2078.82747	0.99503
2076.77533	0.99477
2074.72318	0.99402
2072.67103	0.99422
2070.61888	0.99517
2068.56673	0.99553
2066.51458	0.99498
2064.46243	0.99393
2062.41028	0.99287
2060.35813	0.99279
2058.30598	0.99389
2056.25383	0.99471
2054.20168	0.99458
2052.14953	0.99422
2050.09738	0.99469
2048.04523	0.99621
2045.99308	0.99693
2043.94093	0.99578
2041.88878	0.99396
2039.83663	0.99330
2037.78448	0.99424
2035.73233	0.99496
2033.68019	0.99470
2031.62804	0.99473
2029.57589	0.99519
2027.52374	0.99584
2025.47159	0.99642
2023.41944	0.99646
2021.36729	0.99609
2019.31514	0.99564
2017.26299	0.99605
2015.21084	0.99716
2013.15869	0.99742
2011.10654	0.99703
2009.05439	0.99701
2007.00224	0.99748
2004.95009	0.99810
2002.89794	0.99833
2000.84579	0.99799
1998.79364	0.99704
1996.74149	0.99584
1994.68934	0.99569
1992.63719	0.99669
1990.58505	0.99769
1988.53290	0.99823
1986.48075	0.99823
1984.42860	0.99780
1982.37645	0.99738
1980.32430	0.99699
1978.27215	0.99650
1976.22000	0.99641
1974.16785	0.99690
1972.11570	0.99754
1970.06355	0.99789
1968.01140	0.99841
1965.95925	0.99944
1963.90710	0.99952
1961.85495	0.99845
1959.80280	0.99748
1957.75065	0.99741
1955.69850	0.99797
1953.64635	0.99826
1951.59420	0.99800
1949.54205	0.99750
1947.48990	0.99716
1945.43776	0.99709
1943.38561	0.99695
1941.33346	0.99654
1939.28131	0.99608
1937.22916	0.99586
1935.17701	0.99624
1933.12486	0.99705
1931.07271	0.99727
1929.02056	0.99693
1926.96841	0.99703
1924.91626	0.99743
1922.86411	0.99744
1920.81196	0.99716
1918.75981	0.99701
1916.70766	0.99719
1914.65551	0.99751
1912.60336	0.99740
1910.55121	0.99708
1908.49906	0.99710
1906.44691	0.99714
1904.39476	0.99699
1902.34262	0.99687
1900.29047	0.99683
1898.23832	0.99691
1896.18617	0.99717
1894.13402	0.99745
1892.08187	0.99754
1890.02972	0.99768
1887.97757	0.99781
1885.92542	0.99748
1883.87327	0.99690
1881.82112	0.99657
1879.76897	0.99638
1877.71682	0.99621
1875.66467	0.99626
1873.61252	0.99641
1871.56037	0.99675
1869.50822	0.99752
1867.45607	0.99787
1865.40392	0.99737
1863.35177	0.99692
1861.29962	0.99678
1859.24748	0.99688
1857.19533	0.99724
1855.14318	0.99745
1853.09103	0.99746
1851.03888	0.99760
1848.98673	0.99778
1846.93458	0.99806
1844.88243	0.99843
1842.83028	0.99838
1840.77813	0.99808
1838.72598	0.99793
1836.67383	0.99793
1834.62168	0.99798
1832.56953	0.99803
1830.51738	0.99805
1828.46523	0.99797
1826.41308	0.99800
1824.36093	0.99809
1822.30878	0.99796
1820.25663	0.99774
1818.20448	0.99776
1816.15233	0.99799
1814.10019	0.99822
1812.04804	0.99859
1809.99589	0.99879
1807.94374	0.99857
1805.89159	0.99830
1803.83944	0.99816
1801.78729	0.99821
1799.73514	0.99845
1797.68299	0.99853
1795.63084	0.99849
1793.57869	0.99850
1791.52654	0.99840
1789.47439	0.99821
1787.42224	0.99815
1785.37009	0.99813
1783.31794	0.99814
1781.26579	0.99811
1779.21364	0.99797
1777.16149	0.99804
1775.10934	0.99836
1773.05719	0.99859
1771.00505	0.99839
1768.95290	0.99792
1766.90075	0.99759
1764.84860	0.99765
1762.79645	0.99789
1760.74430	0.99776
1758.69215	0.99737
1756.64000	0.99718
1754.58785	0.99731
1752.53570	0.99768
1750.48355	0.99795
1748.43140	0.99777
1746.37925	0.99752
1744.32710	0.99748
1742.27495	0.99754
1740.22280	0.99750
1738.17065	0.99747
1736.11850	0.99784
1734.06635	0.99838
1732.01420	0.99835
1729.96205	0.99815
1727.90991	0.99809
1725.85776	0.99815
1723.80561	0.99820
1721.75346	0.99826
1719.70131	0.99860
1717.64916	0.99900
1715.59701	0.99852
1713.54486	0.99746
1711.49271	0.99666
1709.44056	0.99633
1707.38841	0.99633
1705.33626	0.99630
1703.28411	0.99621
1701.23196	0.99638
1699.17981	0.99666
1697.12766	0.99633
1695.07551	0.99536
1693.02336	0.99478
1690.97121	0.99482
1688.91906	0.99490
1686.86691	0.99491
1684.81476	0.99490
1682.76262	0.99419
1680.71047	0.99335
1678.65832	0.99296
1676.60617	0.99275
1674.55402	0.99221
1672.50187	0.99166
1670.44972	0.99157
1668.39757	0.99139
1666.34542	0.99103
1664.29327	0.99090
1662.24112	0.99075
1660.18897	0.99047
1658.13682	0.99059
1656.08467	0.99112
1654.03252	0.99173
1651.98037	0.99189
1649.92822	0.99205
1647.87607	0.99257
1645.82392	0.99281
1643.77177	0.99277
1641.71962	0.99304
1639.66748	0.99367
1637.61533	0.99447
1635.56318	0.99485
1633.51103	0.99458
1631.45888	0.99462
1629.40673	0.99505
1627.35458	0.99552
1625.30243	0.99608
1623.25028	0.99667
1621.19813	0.99691
1619.14598	0.99707
1617.09383	0.99741
1615.04168	0.99755
1612.98953	0.99763
1610.93738	0.99789
1608.88523	0.99816
1606.83308	0.99824
1604.78093	0.99832
1602.72878	0.99854
1600.67663	0.99867
1598.62448	0.99872
1596.57234	0.99886
1594.52019	0.99891
1592.46804	0.99875
1590.41589	0.99873
1588.36374	0.99886
1586.31159	0.99889
1584.25944	0.99883
1582.20729	0.99883
1580.15514	0.99897
1578.10299	0.99939
1576.05084	0.99960
1573.99869	0.99918
1571.94654	0.99913
1569.89439	0.99927
1567.84224	0.99895
1565.79009	0.99864
1563.73794	0.99860
1561.68579	0.99884
1559.63364	0.99964
1557.58149	0.99982
1555.52934	0.99902
1553.47719	0.99843
1551.42505	0.99812
1549.37290	0.99803
1547.32075	0.99809
1545.26860	0.99845
1543.21645	0.99914
1541.16430	0.99991
1539.11215	0.99915
1537.06000	0.99797
1535.00785	0.99764
1532.95570	0.99740
1530.90355	0.99684
1528.85140	0.99661
1526.79925	0.99664
1524.74710	0.99658
1522.69495	0.99651
1520.64280	0.99609
1518.59065	0.99532
1516.53850	0.99423
1514.48635	0.99304
1512.43420	0.99229
1510.38205	0.99206
1508.32991	0.99163
1506.27776	0.98919
1504.22561	0.98637
1502.17346	0.98441
1500.12131	0.98190
1498.06916	0.97703
1496.01701	0.96854
1493.96486	0.95925
1491.91271	0.94929
1489.86056	0.93474
1487.80841	0.91936
1485.75626	0.90974
1483.70411	0.90417
1481.65196	0.90025
1479.59981	0.89724
1477.54766	0.89522
1475.49551	0.89394
1473.44336	0.89282
1471.39121	0.89143
1469.33906	0.89140
1467.28691	0.89372
1465.23477	0.89894
1463.18262	0.90504
1461.13047	0.90927
1459.07832	0.91234
1457.02617	0.91445
1454.97402	0.91437
1452.92187	0.91316
1450.86972	0.91095
1448.81757	0.90668
1446.76542	0.89991
1444.71327	0.89250
1442.66112	0.88588
1440.60897	0.88109
1438.55682	0.87913
1436.50467	0.87941
1434.45252	0.87974
1432.40037	0.87836
1430.34822	0.87440
1428.29607	0.86831
1426.24392	0.86230
1424.19177	0.85733
1422.13962	0.85473
1420.08748	0.85594
1418.03533	0.86045
1415.98318	0.86507
1413.93103	0.86899
1411.87888	0.87294
1409.82673	0.87694
1407.77458	0.88064
1405.72243	0.88409
1403.67028	0.88741
1401.61813	0.89028
1399.56598	0.89266
1397.51383	0.89421
1395.46168	0.89421
1393.40953	0.89250
1391.35738	0.88953
1389.30523	0.88476
1387.25308	0.87675
1385.20093	0.86687
1383.14878	0.85731
1381.09663	0.84784
1379.04448	0.83883
1376.99234	0.83118
1374.94019	0.82476
1372.88804	0.81986
1370.83589	0.81817
1368.78374	0.82034
1366.73159	0.82608
1364.67944	0.83477
1362.62729	0.84581
1360.57514	0.85573
1358.52299	0.86189
1356.47084	0.86504
1354.41869	0.86584
1352.36654	0.86547
1350.31439	0.86590
1348.26224	0.86882
1346.21009	0.87486
1344.15794	0.88315
1342.10579	0.89207
1340.05364	0.90043
1338.00149	0.90687
1335.94934	0.91082
1333.89720	0.91306
1331.84505	0.91409
1329.79290	0.91421
1327.74075	0.91379
1325.68860	0.91320
1323.63645	0.91257
1321.58430	0.91213
1319.53215	0.91244
1317.48000	0.91374
1315.42785	0.91590
1313.37570	0.91829
1311.32355	0.92001
1309.27140	0.92057
1307.21925	0.91984
1305.16710	0.91817
1303.11495	0.91616
1301.06280	0.91421
1299.01065	0.91250
1296.95850	0.91132
1294.90635	0.91110
1292.85420	0.91207
1290.80205	0.91431
1288.74991	0.91799
1286.69776	0.92278
1284.64561	0.92806
1282.59346	0.93333
1280.54131	0.93802
1278.48916	0.94152
1276.43701	0.94353
1274.38486	0.94414
1272.33271	0.94372
1270.28056	0.94251
1268.22841	0.94068
1266.17626	0.93857
1264.12411	0.93646
1262.07196	0.93434
1260.01981	0.93221
1257.96766	0.93001
1255.91551	0.92792
1253.86336	0.92609
1251.81121	0.92427
1249.75906	0.92247
1247.70691	0.92092
1245.65477	0.91957
1243.60262	0.91826
1241.55047	0.91709
1239.49832	0.91638
1237.44617	0.91635
1235.39402	0.91695
1233.34187	0.91790
1231.28972	0.91912
1229.23757	0.92065
1227.18542	0.92232
1225.13327	0.92381
1223.08112	0.92478
1221.02897	0.92516
1218.97682	0.92499
1216.92467	0.92443
1214.87252	0.92368
1212.82037	0.92281
1210.76822	0.92188
1208.71607	0.92110
1206.66392	0.92084
1204.61177	0.92115
1202.55963	0.92176
1200.50748	0.92264
1198.45533	0.92382
1196.40318	0.92534
1194.35103	0.92733
1192.29888	0.93025
1190.24673	0.93424
1188.19458	0.93857
1186.14243	0.94282
1184.09028	0.94722
1182.03813	0.95182
1179.98598	0.95608
1177.93383	0.95971
1175.88168	0.96312
1173.82953	0.96617
1171.77738	0.96836
1169.72523	0.96987
1167.67308	0.97097
1165.62093	0.97135
1163.56878	0.97052
1161.51663	0.96830
1159.46448	0.96457
1157.41234	0.95914
1155.36019	0.95206
1153.30804	0.94353
1151.25589	0.93327
1149.20374	0.92129
1147.15159	0.90833
1145.09944	0.89473
1143.04729	0.88016
1140.99514	0.86405
1138.94299	0.84564
1136.89084	0.82398
1134.83869	0.79840
1132.78654	0.76885
1130.73439	0.73586
1128.68224	0.70067
1126.63009	0.66509
1124.57794	0.63087
1122.52579	0.59929
1120.47364	0.57124
1118.42149	0.54724
1116.36934	0.52748
1114.31720	0.51196
1112.26505	0.50061
1110.21290	0.49313
1108.16075	0.48885
1106.10860	0.48691
1104.05645	0.48666
1102.00430	0.48754
1099.95215	0.48918
1097.90000	0.49156
1095.84785	0.49508
1093.79570	0.50034
1091.74355	0.50737
1089.69140	0.51542
1087.63925	0.52361
1085.58710	0.53072
1083.53495	0.53465
1081.48280	0.53355
1079.43065	0.52710
1077.37850	0.51587
1075.32635	0.50092
1073.27420	0.48374
1071.22206	0.46576
1069.16991	0.44838
1067.11776	0.43268
1065.06561	0.41960
1063.01346	0.41005
1060.96131	0.40449
1058.90916	0.40278
1056.85701	0.40444
1054.80486	0.40903
1052.75271	0.41617
1050.70056	0.42531
1048.64841	0.43568
1046.59626	0.44639
1044.54411	0.45628
1042.49196	0.46427
1040.43981	0.46998
1038.38766	0.47403
1036.33551	0.47823
1034.28336	0.48446
1032.23121	0.49402
1030.17906	0.50786
1028.12692	0.52614
1026.07477	0.54853
1024.02262	0.57459
1021.97047	0.60322
1019.91832	0.63288
1017.86617	0.66215
1015.81402	0.68983
1013.76187	0.71517
1011.70972	0.73742
1009.65757	0.75583
1007.60542	0.77001
1005.55327	0.77974
1003.50112	0.78523
1001.44897	0.78753
999.39682	0.78794
997.34467	0.78710
995.29252	0.78495
993.24037	0.78109
991.18822	0.77568
989.13607	0.77031
987.08392	0.76702
985.03177	0.76672
982.97963	0.76909
980.92748	0.77333
978.87533	0.77863
976.82318	0.78467
974.77103	0.79131
972.71888	0.79810
970.66673	0.80468
968.61458	0.81054
966.56243	0.81522
964.51028	0.81871
962.45813	0.82118
960.40598	0.82327
958.35383	0.82582
956.30168	0.82890
954.24953	0.83171
952.19738	0.83317
950.14523	0.83268
948.09308	0.83040
946.04093	0.82716
943.98878	0.82414
941.93663	0.82241
939.88449	0.82276
937.83234	0.82520
935.78019	0.82855
933.72804	0.83093
931.67589	0.83074
929.62374	0.82729
927.57159	0.82081
925.51944	0.81246
923.46729	0.80459
921.41514	0.79930
919.36299	0.79773
917.31084	0.80041
915.25869	0.80754
913.20654	0.81870
911.15439	0.83250
909.10224	0.84728
907.05009	0.86216
904.99794	0.87661
902.94579	0.88985
900.89364	0.90163
898.84149	0.91205
896.78935	0.92114
894.73720	0.92893
892.68505	0.93557
890.63290	0.94135
888.58075	0.94658
886.52860	0.95119
884.47645	0.95453
882.42430	0.95668
880.37215	0.95838
878.32000	0.95990
876.26785	0.96132
874.21570	0.96269
872.16355	0.96356
870.11140	0.96392
868.05925	0.96470
866.00710	0.96692
863.95495	0.97100
861.90280	0.97625
859.85065	0.98173
857.79850	0.98686
855.74635	0.99100
853.69420	0.99400
851.64206	0.99624
849.58991	0.99781
847.53776	0.99874
845.48561	0.99945
843.43346	0.99986
841.38131	0.99987
839.32916	0.99986
837.27701	0.99988
835.22486	0.99932
833.17271	0.99786
831.12056	0.99565
829.06841	0.99270
827.01626	0.98895
824.96411	0.98502
822.91196	0.98143
820.85981	0.97838
818.80766	0.97617
816.75551	0.97452
814.70336	0.97310
812.65121	0.97204
810.59906	0.97138
808.54692	0.97081
806.49477	0.96978
804.44262	0.96777
802.39047	0.96507
800.33832	0.96221
798.28617	0.95939
796.23402	0.95648
794.18187	0.95279
792.12972	0.94860
790.07757	0.94512
788.02542	0.94251
785.97327	0.94023
783.92112	0.93790
781.86897	0.93573
779.81682	0.93441
777.76467	0.93409
775.71252	0.93415
773.66037	0.93394
771.60822	0.93331
769.55607	0.93221
767.50392	0.93072
765.45178	0.92910
763.39963	0.92711
761.34748	0.92492
759.29533	0.92327
757.24318	0.92200
755.19103	0.92109
753.13888	0.92107
751.08673	0.92187
749.03458	0.92307
746.98243	0.92439
744.93028	0.92554
742.87813	0.92638
740.82598	0.92687
738.77383	0.92694
736.72168	0.92642
734.66953	0.92537
732.61738	0.92431
730.56523	0.92351
728.51308	0.92232
726.46093	0.92041
724.40878	0.91859
722.35663	0.91727
720.30449	0.91574
718.25234	0.91393
716.20019	0.91223
714.14804	0.91022
712.09589	0.90787
710.04374	0.90579
707.99159	0.90375
705.93944	0.90134
703.88729	0.89900
701.83514	0.89707
699.78299	0.89500
697.73084	0.89235
695.67869	0.88982
693.62654	0.88792
691.57439	0.88579
689.52224	0.88307
687.47009	0.88060
685.41794	0.87863
683.36579	0.87672
681.31364	0.87452
679.26149	0.87191
677.20935	0.86914
675.15720	0.86698
673.10505	0.86576
671.05290	0.86470
669.00075	0.86253
666.94860	0.85968
664.89645	0.85811
662.84430	0.85650
660.79215	0.85431
658.74000	0.85298
656.68785	0.85205
654.63570	0.85013
652.58355	0.84798
650.53140	0.84616
648.47925	0.84395
646.42710	0.84147
644.37495	0.83956
642.32280	0.83844
640.27065	0.83720
638.21850	0.83507
636.16635	0.83278
634.11421	0.83096
632.06206	0.82874
630.00991	0.82602
627.95776	0.82397
625.90561	0.82290
623.85346	0.82182
621.80131	0.82039
619.74916	0.81995
617.69701	0.82050
615.64486	0.82082
613.59271	0.82132
611.54056	0.82250
609.48841	0.82323
607.43626	0.82264
605.38411	0.82125
603.33196	0.81985
601.27981	0.81916
599.22766	0.81902
597.17551	0.81832
595.12336	0.81668
593.07121	0.81475
591.01906	0.81285
588.96692	0.81077
586.91477	0.80874
584.86262	0.80741
582.81047	0.80653
580.75832	0.80566
578.70617	0.80566
576.65402	0.80673
574.60187	0.80700
572.54972	0.80653
570.49757	0.80771
568.44542	0.81008
566.39327	0.81196
564.34112	0.81413
562.28897	0.81694
560.23682	0.81887
558.18467	0.81984
556.13252	0.82144
554.08037	0.82351
552.02822	0.82462
549.97607	0.82482
547.92392	0.82477
545.87178	0.82483
543.81963	0.82594
541.76748	0.82831
539.71533	0.83050
537.66318	0.83103
535.61103	0.83003
533.55888	0.82762
531.50673	0.82343
529.45458	0.81906
527.40243	0.81770
525.35028	0.82036
523.29813	0.82486
521.24598	0.82948
519.19383	0.83428
517.14168	0.83910
515.08953	0.84253
513.03738	0.84489
510.98523	0.84766
508.93308	0.85042
506.88093	0.85248
504.82878	0.85407
502.77664	0.85633
500.72449	0.85967
498.67234	0.86369
496.62019	0.86791
494.56804	0.87187
492.51589	0.87601
490.46374	0.88087
488.41159	0.88611
486.35944	0.89111
484.30729	0.89625
482.25514	0.90090
480.20299	0.90374
478.15084	0.90632
476.09869	0.91054
474.04654	0.91551
471.99439	0.91935
469.94224	0.92203
467.89009	0.92520
465.83794	0.92917
463.78579	0.93275
461.73364	0.93494
459.68149	0.93593
457.62935	0.93562
455.57720	0.93416
453.52505	0.93409
451.47290	0.93534
449.42075	0.93549
447.36860	0.93524
445.31645	0.93610
443.26430	0.93727
441.21215	0.93788
439.16000	0.93829
437.10785	0.93807
435.05570	0.93604
433.00355	0.93397
430.95140	0.93325
428.89925	0.93263
426.84710	0.93362
424.79495	0.93755
422.74280	0.94238
420.69065	0.94882
418.63850	0.95781
416.58635	0.96214
414.53421	0.96210
412.48206	0.96301
410.42991	0.96472
408.37776	0.96315
406.32561	0.96086
404.27346	0.96465
402.22131	0.97368
400.16916	0.98582
398.11701	1.00000
