3997.58729	0.99407
3995.53514	0.99384
3993.48299	0.99357
3991.43084	0.99335
3989.37869	0.99345
3987.32654	0.99380
3985.27439	0.99401
3983.22224	0.99392
3981.17009	0.99382
3979.11794	0.99372
3977.06579	0.99352
3975.01364	0.99347
3972.96149	0.99366
3970.90934	0.99391
3968.85719	0.99404
3966.80504	0.99403
3964.75289	0.99407
3962.70074	0.99429
3960.64859	0.99454
3958.59645	0.99446
3956.54430	0.99427
3954.49215	0.99435
3952.44000	0.99454
3950.38785	0.99472
3948.33570	0.99479
3946.28355	0.99457
3944.23140	0.99423
3942.17925	0.99412
3940.12710	0.99442
3938.07495	0.99477
3936.02280	0.99489
3933.97065	0.99512
3931.91850	0.99542
3929.86635	0.99537
3927.81420	0.99520
3925.76205	0.99521
3923.70990	0.99523
3921.65775	0.99529
3919.60560	0.99555
3917.55345	0.99559
3915.50131	0.99521
3913.44916	0.99494
3911.39701	0.99501
3909.34486	0.99521
3907.29271	0.99536
3905.24056	0.99558
3903.18841	0.99615
3901.13626	0.99652
3899.08411	0.99645
3897.03196	0.99624
3894.97981	0.99589
3892.92766	0.99572
3890.87551	0.99593
3888.82336	0.99618
3886.77121	0.99629
3884.71906	0.99606
3882.66691	0.99587
3880.61476	0.99590
3878.56261	0.99583
3876.51046	0.99583
3874.45831	0.99602
3872.40616	0.99622
3870.35402	0.99615
3868.30187	0.99590
3866.24972	0.99592
3864.19757	0.99603
3862.14542	0.99609
3860.09327	0.99609
3858.04112	0.99602
3855.98897	0.99639
3853.93682	0.99719
3851.88467	0.99701
3849.83252	0.99636
3847.78037	0.99612
3845.72822	0.99616
3843.67607	0.99642
3841.62392	0.99674
3839.57177	0.99681
3837.51962	0.99635
3835.46747	0.99587
3833.41532	0.99589
3831.36317	0.99603
3829.31102	0.99607
3827.25888	0.99618
3825.20673	0.99639
3823.15458	0.99682
3821.10243	0.99714
3819.05028	0.99668
3816.99813	0.99622
3814.94598	0.99626
3812.89383	0.99610
3810.84168	0.99579
3808.78953	0.99596
3806.73738	0.99628
3804.68523	0.99625
3802.63308	0.99624
3800.58093	0.99628
3798.52878	0.99628
3796.47663	0.99635
3794.42448	0.99630
3792.37233	0.99593
3790.32018	0.99546
3788.26803	0.99531
3786.21588	0.99544
3784.16374	0.99563
3782.11159	0.99594
3780.05944	0.99623
3778.00729	0.99627
3775.95514	0.99613
3773.90299	0.99601
3771.85084	0.99604
3769.79869	0.99628
3767.74654	0.99642
3765.69439	0.99608
3763.64224	0.99557
3761.59009	0.99550
3759.53794	0.99589
3757.48579	0.99631
3755.43364	0.99663
3753.38149	0.99712
3751.32934	0.99778
3749.27719	0.99784
3747.22504	0.99746
3745.17289	0.99748
3743.12074	0.99765
3741.06859	0.99747
3739.01645	0.99724
3736.96430	0.99732
3734.91215	0.99779
3732.86000	0.99766
3730.80785	0.99676
3728.75570	0.99613
3726.70355	0.99610
3724.65140	0.99645
3722.59925	0.99669
3720.54710	0.99657
3718.49495	0.99629
3716.44280	0.99624
3714.39065	0.99651
3712.33850	0.99681
3710.28635	0.99683
3708.23420	0.99651
3706.18205	0.99604
3704.12990	0.99585
3702.07775	0.99595
3700.02560	0.99603
3697.97345	0.99593
3695.92131	0.99567
3693.86916	0.99573
3691.81701	0.99627
3689.76486	0.99657
3687.71271	0.99644
3685.66056	0.99605
3683.60841	0.99543
3681.55626	0.99515
3679.50411	0.99516
3677.45196	0.99507
3675.39981	0.99482
3673.34766	0.99458
3671.29551	0.99486
3669.24336	0.99519
3667.19121	0.99481
3665.13906	0.99434
3663.08691	0.99412
3661.03476	0.99403
3658.98261	0.99403
3656.93046	0.99415
3654.87831	0.99422
3652.82617	0.99436
3650.77402	0.99458
3648.72187	0.99421
3646.66972	0.99328
3644.61757	0.99257
3642.56542	0.99198
3640.51327	0.99147
3638.46112	0.99120
3636.40897	0.99099
3634.35682	0.99076
3632.30467	0.99074
3630.25252	0.99084
3628.20037	0.99039
3626.14822	0.98951
3624.09607	0.98893
3622.04392	0.98892
3619.99177	0.98902
3617.93962	0.98823
3615.88747	0.98719
3613.83532	0.98654
3611.78317	0.98606
3609.73102	0.98568
3607.67888	0.98492
3605.62673	0.98377
3603.57458	0.98278
3601.52243	0.98206
3599.47028	0.98130
3597.41813	0.98043
3595.36598	0.97964
3593.31383	0.97886
3591.26168	0.97804
3589.20953	0.97725
3587.15738	0.97617
3585.10523	0.97474
3583.05308	0.97346
3581.00093	0.97230
3578.94878	0.97126
3576.89663	0.97038
3574.84448	0.96940
3572.79233	0.96804
3570.74018	0.96660
3568.68803	0.96547
3566.63588	0.96411
3564.58374	0.96244
3562.53159	0.96090
3560.47944	0.95916
3558.42729	0.95726
3556.37514	0.95577
3554.32299	0.95458
3552.27084	0.95283
3550.21869	0.95058
3548.16654	0.94851
3546.11439	0.94657
3544.06224	0.94463
3542.01009	0.94280
3539.95794	0.94082
3537.90579	0.93855
3535.85364	0.93619
3533.80149	0.93395
3531.74934	0.93174
3529.69719	0.92942
3527.64504	0.92699
3525.59289	0.92432
3523.54074	0.92145
3521.48860	0.91867
3519.43645	0.91601
3517.38430	0.91336
3515.33215	0.91083
3513.28000	0.90827
3511.22785	0.90542
3509.17570	0.90246
3507.12355	0.89960
3505.07140	0.89678
3503.01925	0.89368
3500.96710	0.89046
3498.91495	0.88750
3496.86280	0.88453
3494.81065	0.88118
3492.75850	0.87794
3490.70635	0.87535
3488.65420	0.87280
3486.60205	0.86955
3484.54990	0.86591
3482.49775	0.86243
3480.44560	0.85915
3478.39345	0.85601
3476.34131	0.85293
3474.28916	0.84980
3472.23701	0.84665
3470.18486	0.84354
3468.13271	0.84052
3466.08056	0.83743
3464.02841	0.83409
3461.97626	0.83088
3459.92411	0.82782
3457.87196	0.82461
3455.81981	0.82127
3453.76766	0.81796
3451.71551	0.81494
3449.66336	0.81205
3447.61121	0.80894
3445.55906	0.80578
3443.50691	0.80285
3441.45476	0.79992
3439.40261	0.79706
3437.35046	0.79423
3435.29831	0.79128
3433.24617	0.78845
3431.19402	0.78581
3429.14187	0.78296
3427.08972	0.77988
3425.03757	0.77702
3422.98542	0.77439
3420.93327	0.77155
3418.88112	0.76852
3416.82897	0.76562
3414.77682	0.76298
3412.72467	0.76053
3410.67252	0.75803
3408.62037	0.75542
3406.56822	0.75301
3404.51607	0.75083
3402.46392	0.74854
3400.41177	0.74605
3398.35962	0.74352
3396.30747	0.74102
3394.25532	0.73863
3392.20317	0.73638
3390.15103	0.73414
3388.09888	0.73192
3386.04673	0.72985
3383.99458	0.72774
3381.94243	0.72545
3379.89028	0.72321
3377.83813	0.72109
3375.78598	0.71909
3373.73383	0.71713
3371.68168	0.71534
3369.62953	0.71356
3367.57738	0.71155
3365.52523	0.70959
3363.47308	0.70802
3361.42093	0.70665
3359.36878	0.70502
3357.31663	0.70323
3355.26448	0.70174
3353.21233	0.70040
3351.16018	0.69897
3349.10803	0.69762
3347.05588	0.69640
3345.00374	0.69525
3342.95159	0.69427
3340.89944	0.69344
3338.84729	0.69265
3336.79514	0.69190
3334.74299	0.69125
3332.69084	0.69069
3330.63869	0.69018
3328.58654	0.68974
3326.53439	0.68946
3324.48224	0.68922
3322.43009	0.68892
3320.37794	0.68868
3318.32579	0.68871
3316.27364	0.68897
3314.22149	0.68939
3312.16934	0.68995
3310.11719	0.69060
3308.06504	0.69117
3306.01289	0.69153
3303.96074	0.69180
3301.90860	0.69226
3299.85645	0.69305
3297.80430	0.69398
3295.75215	0.69485
3293.70000	0.69577
3291.64785	0.69679
3289.59570	0.69780
3287.54355	0.69883
3285.49140	0.70009
3283.43925	0.70158
3281.38710	0.70317
3279.33495	0.70483
3277.28280	0.70647
3275.23065	0.70797
3273.17850	0.70952
3271.12635	0.71113
3269.07420	0.71269
3267.02205	0.71450
3264.96990	0.71661
3262.91775	0.71858
3260.86560	0.72048
3258.81346	0.72259
3256.76131	0.72494
3254.70916	0.72732
3252.65701	0.72951
3250.60486	0.73167
3248.55271	0.73421
3246.50056	0.73695
3244.44841	0.73952
3242.39626	0.74192
3240.34411	0.74437
3238.29196	0.74705
3236.23981	0.74993
3234.18766	0.75282
3232.13551	0.75572
3230.08336	0.75859
3228.03121	0.76134
3225.97906	0.76405
3223.92691	0.76691
3221.87476	0.76996
3219.82261	0.77314
3217.77046	0.77630
3215.71832	0.77937
3213.66617	0.78250
3211.61402	0.78565
3209.56187	0.78865
3207.50972	0.79171
3205.45757	0.79496
3203.40542	0.79817
3201.35327	0.80120
3199.30112	0.80417
3197.24897	0.80734
3195.19682	0.81066
3193.14467	0.81384
3191.09252	0.81674
3189.04037	0.81963
3186.98822	0.82286
3184.93607	0.82625
3182.88392	0.82941
3180.83177	0.83251
3178.77962	0.83565
3176.72747	0.83865
3174.67532	0.84149
3172.62317	0.84419
3170.57103	0.84687
3168.51888	0.84980
3166.46673	0.85283
3164.41458	0.85577
3162.36243	0.85869
3160.31028	0.86145
3158.25813	0.86388
3156.20598	0.86628
3154.15383	0.86886
3152.10168	0.87156
3150.04953	0.87413
3147.99738	0.87633
3145.94523	0.87849
3143.89308	0.88096
3141.84093	0.88349
3139.78878	0.88572
3137.73663	0.88775
3135.68448	0.88988
3133.63233	0.89211
3131.58018	0.89420
3129.52803	0.89624
3127.47589	0.89834
3125.42374	0.90033
3123.37159	0.90224
3121.31944	0.90427
3119.26729	0.90632
3117.21514	0.90811
3115.16299	0.90972
3113.11084	0.91123
3111.05869	0.91271
3109.00654	0.91444
3106.95439	0.91632
3104.90224	0.91783
3102.85009	0.91916
3100.79794	0.92065
3098.74579	0.92222
3096.69364	0.92379
3094.64149	0.92511
3092.58934	0.92616
3090.53719	0.92734
3088.48504	0.92869
3086.43289	0.92990
3084.38075	0.93102
3082.32860	0.93220
3080.27645	0.93340
3078.22430	0.93442
3076.17215	0.93528
3074.12000	0.93615
3072.06785	0.93722
3070.01570	0.93842
3067.96355	0.93952
3065.91140	0.94061
3063.85925	0.94166
3061.80710	0.94239
3059.75495	0.94302
3057.70280	0.94374
3055.65065	0.94436
3053.59850	0.94496
3051.54635	0.94568
3049.49420	0.94635
3047.44205	0.94704
3045.38990	0.94770
3043.33775	0.94821
3041.28560	0.94875
3039.23346	0.94932
3037.18131	0.94969
3035.12916	0.95011
3033.07701	0.95069
3031.02486	0.95108
3028.97271	0.95131
3026.92056	0.95158
3024.86841	0.95182
3022.81626	0.95201
3020.76411	0.95218
3018.71196	0.95243
3016.65981	0.95270
3014.60766	0.95272
3012.55551	0.95262
3010.50336	0.95252
3008.45121	0.95225
3006.39906	0.95184
3004.34691	0.95144
3002.29476	0.95088
3000.24261	0.94997
2998.19046	0.94891
2996.13832	0.94761
2994.08617	0.94590
2992.03402	0.94393
2989.98187	0.94162
2987.92972	0.93850
2985.87757	0.93431
2983.82542	0.92915
2981.77327	0.92290
2979.72112	0.91560
2977.66897	0.90740
2975.61682	0.89831
2973.56467	0.88829
2971.51252	0.87727
2969.46037	0.86548
2967.40822	0.85359
2965.35607	0.84198
2963.30392	0.83036
2961.25177	0.81861
2959.19962	0.80698
2957.14747	0.79555
2955.09532	0.78423
2953.04318	0.77314
2950.99103	0.76276
2948.93888	0.75398
2946.88673	0.74738
2944.83458	0.74295
2942.78243	0.74079
2940.73028	0.74077
2938.67813	0.74204
2936.62598	0.74358
2934.57383	0.74499
2932.52168	0.74641
2930.46953	0.74839
2928.41738	0.75123
2926.36523	0.75468
2924.31308	0.75870
2922.26093	0.76354
2920.20878	0.76902
2918.15663	0.77460
2916.10448	0.77997
2914.05233	0.78497
2912.00018	0.78954
2909.94803	0.79356
2907.89589	0.79671
2905.84374	0.79857
2903.79159	0.79881
2901.73944	0.79746
2899.68729	0.79454
2897.63514	0.78975
2895.58299	0.78299
2893.53084	0.77479
2891.47869	0.76574
2889.42654	0.75611
2887.37439	0.74631
2885.32224	0.73687
2883.27009	0.72816
2881.21794	0.72042
2879.16579	0.71393
2877.11364	0.70892
2875.06149	0.70540
2873.00934	0.70335
2870.95719	0.70278
2868.90504	0.70378
2866.85289	0.70648
2864.80075	0.71082
2862.74860	0.71658
2860.69645	0.72350
2858.64430	0.73139
2856.59215	0.74011
2854.54000	0.74949
2852.48785	0.75964
2850.43570	0.77059
2848.38355	0.78204
2846.33140	0.79364
2844.27925	0.80510
2842.22710	0.81611
2840.17495	0.82638
2838.12280	0.83569
2836.07065	0.84384
2834.01850	0.85088
2831.96635	0.85729
2829.91420	0.86326
2827.86205	0.86863
2825.80990	0.87333
2823.75775	0.87745
2821.70561	0.88125
2819.65346	0.88465
2817.60131	0.88749
2815.54916	0.88984
2813.49701	0.89185
2811.44486	0.89367
2809.39271	0.89540
2807.34056	0.89705
2805.28841	0.89873
2803.23626	0.90062
2801.18411	0.90286
2799.13196	0.90541
2797.07981	0.90816
2795.02766	0.91109
2792.97551	0.91415
2790.92336	0.91726
2788.87121	0.92020
2786.81906	0.92280
2784.76691	0.92510
2782.71476	0.92718
2780.66261	0.92909
2778.61046	0.93080
2776.55832	0.93216
2774.50617	0.93314
2772.45402	0.93391
2770.40187	0.93467
2768.34972	0.93548
2766.29757	0.93622
2764.24542	0.93683
2762.19327	0.93741
2760.14112	0.93801
2758.08897	0.93849
2756.03682	0.93882
2753.98467	0.93910
2751.93252	0.93948
2749.88037	0.93988
2747.82822	0.94007
2745.77607	0.94030
2743.72392	0.94083
2741.67177	0.94138
2739.61962	0.94188
2737.56747	0.94243
2735.51532	0.94303
2733.46318	0.94368
2731.41103	0.94423
2729.35888	0.94457
2727.30673	0.94493
2725.25458	0.94549
2723.20243	0.94621
2721.15028	0.94707
2719.09813	0.94804
2717.04598	0.94900
2714.99383	0.95007
2712.94168	0.95131
2710.88953	0.95244
2708.83738	0.95337
2706.78523	0.95424
2704.73308	0.95516
2702.68093	0.95601
2700.62878	0.95658
2698.57663	0.95699
2696.52448	0.95754
2694.47233	0.95831
2692.42018	0.95910
2690.36804	0.95970
2688.31589	0.96022
2686.26374	0.96101
2684.21159	0.96190
2682.15944	0.96247
2680.10729	0.96284
2678.05514	0.96330
2676.00299	0.96391
2673.95084	0.96456
2671.89869	0.96505
2669.84654	0.96535
2667.79439	0.96562
2665.74224	0.96595
2663.69009	0.96633
2661.63794	0.96667
2659.58579	0.96701
2657.53364	0.96739
2655.48149	0.96776
2653.42934	0.96807
2651.37719	0.96838
2649.32504	0.96869
2647.27289	0.96890
2645.22075	0.96898
2643.16860	0.96911
2641.11645	0.96940
2639.06430	0.96973
2637.01215	0.97009
2634.96000	0.97057
2632.90785	0.97095
2630.85570	0.97118
2628.80355	0.97164
2626.75140	0.97222
2624.69925	0.97253
2622.64710	0.97277
2620.59495	0.97306
2618.54280	0.97328
2616.49065	0.97336
2614.43850	0.97339
2612.38635	0.97357
2610.33420	0.97384
2608.28205	0.97407
2606.22990	0.97447
2604.17775	0.97507
2602.12561	0.97542
2600.07346	0.97548
2598.02131	0.97563
2595.96916	0.97588
2593.91701	0.97602
2591.86486	0.97607
2589.81271	0.97625
2587.76056	0.97664
2585.70841	0.97704
2583.65626	0.97736
2581.60411	0.97773
2579.55196	0.97804
2577.49981	0.97818
2575.44766	0.97855
2573.39551	0.97903
2571.34336	0.97914
2569.29121	0.97914
2567.23906	0.97910
2565.18691	0.97884
2563.13476	0.97878
2561.08261	0.97898
2559.03047	0.97912
2556.97832	0.97926
2554.92617	0.97943
2552.87402	0.97957
2550.82187	0.97954
2548.76972	0.97926
2546.71757	0.97916
2544.66542	0.97944
2542.61327	0.97970
2540.56112	0.97972
2538.50897	0.97977
2536.45682	0.97986
2534.40467	0.97998
2532.35252	0.98011
2530.30037	0.98007
2528.24822	0.98001
2526.19607	0.98008
2524.14392	0.98021
2522.09177	0.98044
2520.03962	0.98073
2517.98747	0.98098
2515.93532	0.98112
2513.88318	0.98109
2511.83103	0.98098
2509.77888	0.98075
2507.72673	0.98044
2505.67458	0.98051
2503.62243	0.98091
2501.57028	0.98121
2499.51813	0.98133
2497.46598	0.98153
2495.41383	0.98188
2493.36168	0.98216
2491.30953	0.98230
2489.25738	0.98232
2487.20523	0.98225
2485.15308	0.98234
2483.10093	0.98257
2481.04878	0.98291
2478.99663	0.98333
2476.94448	0.98365
2474.89233	0.98393
2472.84018	0.98415
2470.78804	0.98430
2468.73589	0.98446
2466.68374	0.98449
2464.63159	0.98447
2462.57944	0.98474
2460.52729	0.98514
2458.47514	0.98525
2456.42299	0.98529
2454.37084	0.98545
2452.31869	0.98560
2450.26654	0.98583
2448.21439	0.98616
2446.16224	0.98635
2444.11009	0.98636
2442.05794	0.98638
2440.00579	0.98654
2437.95364	0.98670
2435.90149	0.98663
2433.84934	0.98652
2431.79719	0.98675
2429.74504	0.98719
2427.69290	0.98736
2425.64075	0.98734
2423.58860	0.98726
2421.53645	0.98719
2419.48430	0.98730
2417.43215	0.98739
2415.38000	0.98731
2413.32785	0.98722
2411.27570	0.98716
2409.22355	0.98727
2407.17140	0.98755
2405.11925	0.98752
2403.06710	0.98730
2401.01495	0.98744
2398.96280	0.98761
2396.91065	0.98745
2394.85850	0.98733
2392.80635	0.98746
2390.75420	0.98773
2388.70205	0.98801
2386.64990	0.98814
2384.59775	0.98797
2382.54561	0.98781
2380.49346	0.98794
2378.44131	0.98818
2376.38916	0.98833
2374.33701	0.98842
2372.28486	0.98851
2370.23271	0.98884
2368.18056	0.98940
2366.12841	0.98969
2364.07626	0.98963
2362.02411	0.98950
2359.97196	0.98972
2357.91981	0.99020
2355.86766	0.99018
2353.81551	0.98957
2351.76336	0.98884
2349.71121	0.98833
2347.65906	0.98811
2345.60691	0.98835
2343.55476	0.98898
2341.50261	0.98931
2339.45047	0.98920
2337.39832	0.98895
2335.34617	0.98899
2333.29402	0.98952
2331.24187	0.98970
2329.18972	0.98926
2327.13757	0.98906
2325.08542	0.98921
2323.03327	0.98963
2320.98112	0.99002
2318.92897	0.98991
2316.87682	0.98966
2314.82467	0.98972
2312.77252	0.99028
2310.72037	0.99086
2308.66822	0.99054
2306.61607	0.98974
2304.56392	0.98956
2302.51177	0.98983
2300.45962	0.99000
2298.40747	0.99009
2296.35533	0.99027
2294.30318	0.99044
2292.25103	0.99068
2290.19888	0.99104
2288.14673	0.99097
2286.09458	0.99048
2284.04243	0.99024
2281.99028	0.99053
2279.93813	0.99106
2277.88598	0.99130
2275.83383	0.99122
2273.78168	0.99146
2271.72953	0.99225
2269.67738	0.99280
2267.62523	0.99260
2265.57308	0.99211
2263.52093	0.99185
2261.46878	0.99209
2259.41663	0.99275
2257.36448	0.99342
2255.31233	0.99367
2253.26018	0.99364
2251.20804	0.99371
2249.15589	0.99378
2247.10374	0.99367
2245.05159	0.99348
2242.99944	0.99339
2240.94729	0.99357
2238.89514	0.99399
2236.84299	0.99416
2234.79084	0.99378
2232.73869	0.99343
2230.68654	0.99352
2228.63439	0.99375
2226.58224	0.99373
2224.53009	0.99389
2222.47794	0.99459
2220.42579	0.99521
2218.37364	0.99574
2216.32149	0.99622
2214.26934	0.99581
2212.21719	0.99433
2210.16504	0.99312
2208.11290	0.99347
2206.06075	0.99421
2204.00860	0.99383
2201.95645	0.99334
2199.90430	0.99384
2197.85215	0.99487
2195.80000	0.99562
2193.74785	0.99578
2191.69570	0.99558
2189.64355	0.99570
2187.59140	0.99604
2185.53925	0.99616
2183.48710	0.99661
2181.43495	0.99739
2179.38280	0.99819
2177.33065	0.99865
2175.27850	0.99837
2173.22635	0.99775
2171.17420	0.99712
2169.12205	0.99690
2167.06990	0.99800
2165.01776	0.99948
2162.96561	0.99941
2160.91346	0.99938
2158.86131	1.00093
2156.80916	1.00136
2154.75701	0.99915
2152.70486	0.99696
2150.65271	0.99657
2148.60056	0.99677
2146.54841	0.99650
2144.49626	0.99599
2142.44411	0.99552
2140.39196	0.99486
2138.33981	0.99446
2136.28766	0.99445
2134.23551	0.99412
2132.18336	0.99377
2130.13121	0.99387
2128.07906	0.99400
2126.02691	0.99366
2123.97476	0.99270
2121.92262	0.99171
2119.87047	0.99164
2117.81832	0.99225
2115.76617	0.99271
2113.71402	0.99291
2111.66187	0.99308
2109.60972	0.99279
2107.55757	0.99196
2105.50542	0.99154
2103.45327	0.99193
2101.40112	0.99251
2099.34897	0.99293
2097.29682	0.99322
2095.24467	0.99322
2093.19252	0.99306
2091.14037	0.99290
2089.08822	0.99265
2087.03607	0.99241
2084.98392	0.99220
2082.93177	0.99247
2080.87962	0.99350
2078.82747	0.99427
2076.77533	0.99389
2074.72318	0.99310
2072.67103	0.99301
2070.61888	0.99343
2068.56673	0.99318
2066.51458	0.99215
2064.46243	0.99129
2062.41028	0.99108
2060.35813	0.99160
2058.30598	0.99275
2056.25383	0.99332
2054.20168	0.99273
2052.14953	0.99207
2050.09738	0.99202
2048.04523	0.99255
2045.99308	0.99304
2043.94093	0.99260
2041.88878	0.99160
2039.83663	0.99158
2037.78448	0.99267
2035.73233	0.99270
2033.68019	0.99187
2031.62804	0.99273
2029.57589	0.99487
2027.52374	0.99606
2025.47159	0.99560
2023.41944	0.99478
2021.36729	0.99490
2019.31514	0.99553
2017.26299	0.99583
2015.21084	0.99576
2013.15869	0.99478
2011.10654	0.99329
2009.05439	0.99328
2007.00224	0.99454
2004.95009	0.99564
2002.89794	0.99603
2000.84579	0.99490
1998.79364	0.99275
1996.74149	0.99172
1994.68934	0.99284
1992.63719	0.99441
1990.58505	0.99468
1988.53290	0.99428
1986.48075	0.99380
1984.42860	0.99322
1982.37645	0.99285
1980.32430	0.99305
1978.27215	0.99343
1976.22000	0.99313
1974.16785	0.99282
1972.11570	0.99309
1970.06355	0.99373
1968.01140	0.99467
1965.95925	0.99518
1963.90710	0.99497
1961.85495	0.99444
1959.80280	0.99353
1957.75065	0.99282
1955.69850	0.99291
1953.64635	0.99334
1951.59420	0.99336
1949.54205	0.99242
1947.48990	0.99133
1945.43776	0.99135
1943.38561	0.99164
1941.33346	0.99120
1939.28131	0.99084
1937.22916	0.99085
1935.17701	0.99106
1933.12486	0.99126
1931.07271	0.99102
1929.02056	0.99089
1926.96841	0.99137
1924.91626	0.99149
1922.86411	0.99072
1920.81196	0.99031
1918.75981	0.99044
1916.70766	0.99031
1914.65551	0.99028
1912.60336	0.99048
1910.55121	0.99086
1908.49906	0.99113
1906.44691	0.99098
1904.39476	0.99094
1902.34262	0.99089
1900.29047	0.99033
1898.23832	0.98988
1896.18617	0.98997
1894.13402	0.99026
1892.08187	0.99045
1890.02972	0.99048
1887.97757	0.99044
1885.92542	0.99018
1883.87327	0.98963
1881.82112	0.98913
1879.76897	0.98907
1877.71682	0.98935
1875.66467	0.98959
1873.61252	0.98964
1871.56037	0.98982
1869.50822	0.99011
1867.45607	0.98963
1865.40392	0.98881
1863.35177	0.98872
1861.29962	0.98904
1859.24748	0.98914
1857.19533	0.98909
1855.14318	0.98898
1853.09103	0.98890
1851.03888	0.98893
1848.98673	0.98889
1846.93458	0.98904
1844.88243	0.98957
1842.83028	0.98968
1840.77813	0.98938
1838.72598	0.98919
1836.67383	0.98901
1834.62168	0.98907
1832.56953	0.98951
1830.51738	0.98970
1828.46523	0.98922
1826.41308	0.98884
1824.36093	0.98891
1822.30878	0.98899
1820.25663	0.98880
1818.20448	0.98858
1816.15233	0.98851
1814.10019	0.98855
1812.04804	0.98885
1809.99589	0.98911
1807.94374	0.98909
1805.89159	0.98900
1803.83944	0.98893
1801.78729	0.98891
1799.73514	0.98883
1797.68299	0.98863
1795.63084	0.98845
1793.57869	0.98840
1791.52654	0.98834
1789.47439	0.98831
1787.42224	0.98837
1785.37009	0.98829
1783.31794	0.98819
1781.26579	0.98818
1779.21364	0.98805
1777.16149	0.98792
1775.10934	0.98795
1773.05719	0.98800
1771.00505	0.98782
1768.95290	0.98741
1766.90075	0.98716
1764.84860	0.98721
1762.79645	0.98725
1760.74430	0.98697
1758.69215	0.98667
1756.64000	0.98645
1754.58785	0.98628
1752.53570	0.98632
1750.48355	0.98642
1748.43140	0.98630
1746.37925	0.98619
1744.32710	0.98623
1742.27495	0.98627
1740.22280	0.98612
1738.17065	0.98581
1736.11850	0.98581
1734.06635	0.98607
1732.01420	0.98608
1729.96205	0.98601
1727.90991	0.98600
1725.85776	0.98612
1723.80561	0.98612
1721.75346	0.98601
1719.70131	0.98621
1717.64916	0.98632
1715.59701	0.98541
1713.54486	0.98423
1711.49271	0.98346
1709.44056	0.98306
1707.38841	0.98292
1705.33626	0.98277
1703.28411	0.98256
1701.23196	0.98235
1699.17981	0.98219
1697.12766	0.98202
1695.07551	0.98143
1693.02336	0.98082
1690.97121	0.98051
1688.91906	0.98030
1686.86691	0.98009
1684.81476	0.97963
1682.76262	0.97868
1680.71047	0.97783
1678.65832	0.97717
1676.60617	0.97669
1674.55402	0.97623
1672.50187	0.97586
1670.44972	0.97571
1668.39757	0.97523
1666.34542	0.97468
1664.29327	0.97445
1662.24112	0.97428
1660.18897	0.97420
1658.13682	0.97434
1656.08467	0.97452
1654.03252	0.97475
1651.98037	0.97472
1649.92822	0.97455
1647.87607	0.97476
1645.82392	0.97519
1643.77177	0.97535
1641.71962	0.97541
1639.66748	0.97565
1637.61533	0.97598
1635.56318	0.97607
1633.51103	0.97589
1631.45888	0.97591
1629.40673	0.97610
1627.35458	0.97624
1625.30243	0.97648
1623.25028	0.97684
1621.19813	0.97692
1619.14598	0.97692
1617.09383	0.97701
1615.04168	0.97701
1612.98953	0.97704
1610.93738	0.97714
1608.88523	0.97721
1606.83308	0.97709
1604.78093	0.97689
1602.72878	0.97681
1600.67663	0.97676
1598.62448	0.97667
1596.57234	0.97659
1594.52019	0.97649
1592.46804	0.97632
1590.41589	0.97625
1588.36374	0.97623
1586.31159	0.97606
1584.25944	0.97580
1582.20729	0.97557
1580.15514	0.97536
1578.10299	0.97531
1576.05084	0.97522
1573.99869	0.97481
1571.94654	0.97464
1569.89439	0.97461
1567.84224	0.97425
1565.79009	0.97379
1563.73794	0.97347
1561.68579	0.97342
1559.63364	0.97375
1557.58149	0.97331
1555.52934	0.97246
1553.47719	0.97192
1551.42505	0.97139
1549.37290	0.97071
1547.32075	0.97024
1545.26860	0.97023
1543.21645	0.97048
1541.16430	0.97066
1539.11215	0.96971
1537.06000	0.96867
1535.00785	0.96822
1532.95570	0.96754
1530.90355	0.96650
1528.85140	0.96580
1526.79925	0.96529
1524.74710	0.96480
1522.69495	0.96441
1520.64280	0.96350
1518.59065	0.96223
1516.53850	0.96068
1514.48635	0.95901
1512.43420	0.95764
1510.38205	0.95670
1508.32991	0.95566
1506.27776	0.95278
1504.22561	0.94964
1502.17346	0.94727
1500.12131	0.94432
1498.06916	0.93950
1496.01701	0.93198
1493.96486	0.92396
1491.91271	0.91537
1489.86056	0.90256
1487.80841	0.88805
1485.75626	0.87738
1483.70411	0.86935
1481.65196	0.86217
1479.59981	0.85627
1477.54766	0.85233
1475.49551	0.84980
1473.44336	0.84836
1471.39121	0.84792
1469.33906	0.84900
1467.28691	0.85168
1465.23477	0.85584
1463.18262	0.85968
1461.13047	0.86181
1459.07832	0.86269
1457.02617	0.86152
1454.97402	0.85865
1452.92187	0.85599
1450.86972	0.85281
1448.81757	0.84812
1446.76542	0.84175
1444.71327	0.83511
1442.66112	0.82904
1440.60897	0.82438
1438.55682	0.82190
1436.50467	0.82092
1434.45252	0.82019
1432.40037	0.81850
1430.34822	0.81468
1428.29607	0.80898
1426.24392	0.80333
1424.19177	0.79851
1422.13962	0.79572
1420.08748	0.79597
1418.03533	0.79889
1415.98318	0.80259
1413.93103	0.80625
1411.87888	0.81011
1409.82673	0.81399
1407.77458	0.81775
1405.72243	0.82160
1403.67028	0.82549
1401.61813	0.82885
1399.56598	0.83170
1397.51383	0.83372
1395.46168	0.83430
1393.40953	0.83332
1391.35738	0.83105
1389.30523	0.82728
1387.25308	0.82136
1385.20093	0.81456
1383.14878	0.80834
1381.09663	0.80239
1379.04448	0.79669
1376.99234	0.79164
1374.94019	0.78737
1372.88804	0.78442
1370.83589	0.78386
1368.78374	0.78581
1366.73159	0.78985
1364.67944	0.79537
1362.62729	0.80173
1360.57514	0.80685
1358.52299	0.80942
1356.47084	0.81006
1354.41869	0.80958
1352.36654	0.80921
1350.31439	0.81005
1348.26224	0.81268
1346.21009	0.81722
1344.15794	0.82299
1342.10579	0.82885
1340.05364	0.83418
1338.00149	0.83847
1335.94934	0.84131
1333.89720	0.84324
1331.84505	0.84469
1329.79290	0.84572
1327.74075	0.84634
1325.68860	0.84686
1323.63645	0.84741
1321.58430	0.84794
1319.53215	0.84883
1317.48000	0.85044
1315.42785	0.85262
1313.37570	0.85500
1311.32355	0.85708
1309.27140	0.85848
1307.21925	0.85914
1305.16710	0.85935
1303.11495	0.85940
1301.06280	0.85920
1299.01065	0.85868
1296.95850	0.85817
1294.90635	0.85806
1292.85420	0.85859
1290.80205	0.86007
1288.74991	0.86280
1286.69776	0.86672
1284.64561	0.87145
1282.59346	0.87654
1280.54131	0.88151
1278.48916	0.88594
1276.43701	0.88949
1274.38486	0.89206
1272.33271	0.89366
1270.28056	0.89435
1268.22841	0.89430
1266.17626	0.89388
1264.12411	0.89324
1262.07196	0.89220
1260.01981	0.89072
1257.96766	0.88912
1255.91551	0.88758
1253.86336	0.88601
1251.81121	0.88424
1249.75906	0.88232
1247.70691	0.88056
1245.65477	0.87893
1243.60262	0.87723
1241.55047	0.87559
1239.49832	0.87417
1237.44617	0.87313
1235.39402	0.87272
1233.34187	0.87295
1231.28972	0.87360
1229.23757	0.87454
1227.18542	0.87574
1225.13327	0.87692
1223.08112	0.87768
1221.02897	0.87804
1218.97682	0.87813
1216.92467	0.87786
1214.87252	0.87724
1212.82037	0.87648
1210.76822	0.87570
1208.71607	0.87483
1206.66392	0.87401
1204.61177	0.87335
1202.55963	0.87279
1200.50748	0.87243
1198.45533	0.87228
1196.40318	0.87226
1194.35103	0.87252
1192.29888	0.87342
1190.24673	0.87517
1188.19458	0.87748
1186.14243	0.88004
1184.09028	0.88283
1182.03813	0.88580
1179.98598	0.88893
1177.93383	0.89222
1175.88168	0.89565
1173.82953	0.89894
1171.77738	0.90197
1169.72523	0.90480
1167.67308	0.90726
1165.62093	0.90918
1163.56878	0.91041
1161.51663	0.91084
1159.46448	0.91036
1157.41234	0.90879
1155.36019	0.90615
1153.30804	0.90254
1151.25589	0.89768
1149.20374	0.89134
1147.15159	0.88373
1145.09944	0.87521
1143.04729	0.86590
1140.99514	0.85540
1138.94299	0.84304
1136.89084	0.82798
1134.83869	0.80948
1132.78654	0.78721
1130.73439	0.76142
1128.68224	0.73306
1126.63009	0.70388
1124.57794	0.67581
1122.52579	0.65027
1120.47364	0.62831
1118.42149	0.61049
1116.36934	0.59692
1114.31720	0.58742
1112.26505	0.58132
1110.21290	0.57771
1108.16075	0.57596
1106.10860	0.57532
1104.05645	0.57470
1102.00430	0.57377
1099.95215	0.57303
1097.90000	0.57282
1095.84785	0.57330
1093.79570	0.57459
1091.74355	0.57650
1089.69140	0.57854
1087.63925	0.57966
1085.58710	0.57799
1083.53495	0.57158
1081.48280	0.55965
1079.43065	0.54262
1077.37850	0.52145
1075.32635	0.49768
1073.27420	0.47274
1071.22206	0.44739
1069.16991	0.42247
1067.11776	0.39894
1065.06561	0.37778
1063.01346	0.36022
1060.96131	0.34739
1058.90916	0.33995
1056.85701	0.33784
1054.80486	0.34037
1052.75271	0.34635
1050.70056	0.35465
1048.64841	0.36452
1046.59626	0.37499
1044.54411	0.38451
1042.49196	0.39132
1040.43981	0.39465
1038.38766	0.39542
1036.33551	0.39581
1034.28336	0.39831
1032.23121	0.40531
1030.17906	0.41859
1028.12692	0.43862
1026.07477	0.46472
1024.02262	0.49549
1021.97047	0.52893
1019.91832	0.56307
1017.86617	0.59640
1015.81402	0.62792
1013.76187	0.65710
1011.70972	0.68329
1009.65757	0.70529
1007.60542	0.72220
1005.55327	0.73372
1003.50112	0.73977
1001.44897	0.74092
999.39682	0.73798
997.34467	0.73104
995.29252	0.71986
993.24037	0.70473
991.18822	0.68710
989.13607	0.67011
987.08392	0.65770
985.03177	0.65262
982.97963	0.65550
980.92748	0.66500
978.87533	0.67897
976.82318	0.69550
974.77103	0.71300
972.71888	0.72982
970.66673	0.74463
968.61458	0.75666
966.56243	0.76556
964.51028	0.77146
962.45813	0.77494
960.40598	0.77700
958.35383	0.77847
956.30168	0.77953
954.24953	0.77927
952.19738	0.77604
950.14523	0.76892
948.09308	0.75829
946.04093	0.74575
943.98878	0.73424
941.93663	0.72669
939.88449	0.72428
937.83234	0.72655
935.78019	0.73128
933.72804	0.73518
931.67589	0.73563
929.62374	0.73134
927.57159	0.72264
925.51944	0.71139
923.46729	0.70045
921.41514	0.69283
919.36299	0.69077
917.31084	0.69521
915.25869	0.70587
913.20654	0.72164
911.15439	0.74078
909.10224	0.76106
907.05009	0.78058
904.99794	0.79829
902.94579	0.81359
900.89364	0.82634
898.84149	0.83685
896.78935	0.84533
894.73720	0.85194
892.68505	0.85712
890.63290	0.86130
888.58075	0.86492
886.52860	0.86801
884.47645	0.86994
882.42430	0.87088
880.37215	0.87111
878.32000	0.87049
876.26785	0.86948
874.21570	0.86847
872.16355	0.86718
870.11140	0.86587
868.05925	0.86556
866.00710	0.86703
863.95495	0.87030
861.90280	0.87468
859.85065	0.87922
857.79850	0.88331
855.74635	0.88639
853.69420	0.88794
851.64206	0.88846
849.58991	0.88882
847.53776	0.88909
845.48561	0.88931
843.43346	0.88971
841.38131	0.89032
839.32916	0.89073
837.27701	0.89047
835.22486	0.88968
833.17271	0.88848
831.12056	0.88663
829.06841	0.88385
827.01626	0.87993
824.96411	0.87530
822.91196	0.87075
820.85981	0.86685
818.80766	0.86367
816.75551	0.86070
814.70336	0.85782
812.65121	0.85552
810.59906	0.85379
808.54692	0.85194
806.49477	0.84936
804.44262	0.84577
802.39047	0.84163
800.33832	0.83778
798.28617	0.83416
796.23402	0.83006
794.18187	0.82519
792.12972	0.81997
790.07757	0.81512
788.02542	0.81108
785.97327	0.80794
783.92112	0.80522
781.86897	0.80280
779.81682	0.80131
777.76467	0.80082
775.71252	0.80076
773.66037	0.80094
771.60822	0.80141
769.55607	0.80134
767.50392	0.80026
765.45178	0.79896
763.39963	0.79770
761.34748	0.79616
759.29533	0.79454
757.24318	0.79328
755.19103	0.79259
753.13888	0.79213
751.08673	0.79160
749.03458	0.79095
746.98243	0.78995
744.93028	0.78831
742.87813	0.78627
740.82598	0.78410
738.77383	0.78191
736.72168	0.77977
734.66953	0.77757
732.61738	0.77515
730.56523	0.77253
728.51308	0.76974
726.46093	0.76674
724.40878	0.76376
722.35663	0.76101
720.30449	0.75838
718.25234	0.75556
716.20019	0.75263
714.14804	0.74990
712.09589	0.74739
710.04374	0.74484
707.99159	0.74165
705.93944	0.73796
703.88729	0.73472
701.83514	0.73209
699.78299	0.72952
697.73084	0.72671
695.67869	0.72368
693.62654	0.72069
691.57439	0.71802
689.52224	0.71556
687.47009	0.71304
685.41794	0.71044
683.36579	0.70809
681.31364	0.70569
679.26149	0.70282
677.20935	0.69991
675.15720	0.69764
673.10505	0.69590
671.05290	0.69436
669.00075	0.69200
666.94860	0.68865
664.89645	0.68676
662.84430	0.68534
660.79215	0.68328
658.74000	0.68118
656.68785	0.67926
654.63570	0.67745
652.58355	0.67601
650.53140	0.67447
648.47925	0.67234
646.42710	0.67022
644.37495	0.66860
642.32280	0.66729
640.27065	0.66598
638.21850	0.66439
636.16635	0.66295
634.11421	0.66197
632.06206	0.66073
630.00991	0.65889
627.95776	0.65728
625.90561	0.65663
623.85346	0.65635
621.80131	0.65552
619.74916	0.65473
617.69701	0.65456
615.64486	0.65445
613.59271	0.65420
611.54056	0.65431
609.48841	0.65490
607.43626	0.65534
605.38411	0.65505
603.33196	0.65477
601.27981	0.65504
599.22766	0.65502
597.17551	0.65466
595.12336	0.65474
593.07121	0.65516
591.01906	0.65524
588.96692	0.65510
586.91477	0.65508
584.86262	0.65492
582.81047	0.65482
580.75832	0.65502
578.70617	0.65553
576.65402	0.65630
574.60187	0.65671
572.54972	0.65714
570.49757	0.65845
568.44542	0.65971
566.39327	0.66022
564.34112	0.66076
562.28897	0.66222
560.23682	0.66407
558.18467	0.66531
556.13252	0.66657
554.08037	0.66815
552.02822	0.66941
549.97607	0.66968
547.92392	0.66887
545.87178	0.66848
543.81963	0.66911
541.76748	0.66984
539.71533	0.67004
537.66318	0.66795
535.61103	0.66276
533.55888	0.65652
531.50673	0.65009
529.45458	0.64360
527.40243	0.63909
525.35028	0.63851
523.29813	0.64182
521.24598	0.64757
519.19383	0.65489
517.14168	0.66339
515.08953	0.67119
513.03738	0.67676
510.98523	0.68042
508.93308	0.68314
506.88093	0.68574
504.82878	0.68800
502.77664	0.69075
500.72449	0.69482
498.67234	0.69910
496.62019	0.70277
494.56804	0.70591
492.51589	0.70927
490.46374	0.71309
488.41159	0.71653
486.35944	0.71951
484.30729	0.72305
482.25514	0.72673
480.20299	0.72914
478.15084	0.73151
476.09869	0.73592
474.04654	0.74208
471.99439	0.74757
469.94224	0.75091
467.89009	0.75309
465.83794	0.75560
463.78579	0.75917
461.73364	0.76237
459.68149	0.76449
457.62935	0.76602
455.57720	0.76575
453.52505	0.76443
451.47290	0.76354
449.42075	0.76290
447.36860	0.76258
445.31645	0.76256
443.26430	0.76203
441.21215	0.76133
439.16000	0.76020
437.10785	0.75840
435.05570	0.75714
433.00355	0.75767
430.95140	0.75958
428.89925	0.76106
426.84710	0.76276
424.79495	0.76545
422.74280	0.76819
420.69065	0.77195
418.63850	0.77632
416.58635	0.77732
414.53421	0.77579
412.48206	0.77632
410.42991	0.78145
408.37776	0.78498
406.32561	0.78363
404.27346	0.78454
402.22131	0.78909
400.16916	0.79349
398.11701	0.79774
