3997.58729	1.00053
3995.53514	1.00035
3993.48299	1.00032
3991.43084	1.00038
3989.37869	1.00042
3987.32654	1.00042
3985.27439	1.00050
3983.22224	1.00050
3981.17009	1.00032
3979.11794	1.00023
3977.06579	1.00024
3975.01364	1.00011
3972.96149	0.99993
3970.90934	0.99987
3968.85719	0.99968
3966.80504	0.99942
3964.75289	0.99948
3962.70074	0.99970
3960.64859	0.99988
3958.59645	1.00000
3956.54430	0.99982
3954.49215	0.99944
3952.44000	0.99932
3950.38785	0.99952
3948.33570	0.99948
3946.28355	0.99920
3944.23140	0.99898
3942.17925	0.99886
3940.12710	0.99914
3938.07495	0.99955
3936.02280	0.99960
3933.97065	0.99964
3931.91850	0.99972
3929.86635	0.99944
3927.81420	0.99920
3925.76205	0.99934
3923.70990	0.99953
3921.65775	0.99963
3919.60560	0.99999
3917.55345	1.00014
3915.50131	0.99939
3913.44916	0.99870
3911.39701	0.99887
3909.34486	0.99931
3907.29271	0.99950
3905.24056	0.99956
3903.18841	0.99959
3901.13626	0.99976
3899.08411	0.99995
3897.03196	0.99957
3894.97981	0.99901
3892.92766	0.99896
3890.87551	0.99907
3888.82336	0.99894
3886.77121	0.99896
3884.71906	0.99882
3882.66691	0.99856
3880.61476	0.99846
3878.56261	0.99810
3876.51046	0.99800
3874.45831	0.99853
3872.40616	0.99910
3870.35402	0.99903
3868.30187	0.99852
3866.24972	0.99851
3864.19757	0.99860
3862.14542	0.99816
3860.09327	0.99766
3858.04112	0.99775
3855.98897	0.99876
3853.93682	1.00000
3851.88467	0.99943
3849.83252	0.99814
3847.78037	0.99767
3845.72822	0.99792
3843.67607	0.99842
3841.62392	0.99874
3839.57177	0.99866
3837.51962	0.99809
3835.46747	0.99755
3833.41532	0.99747
3831.36317	0.99767
3829.31102	0.99789
3827.25888	0.99789
3825.20673	0.99789
3823.15458	0.99845
3821.10243	0.99908
3819.05028	0.99881
3816.99813	0.99834
3814.94598	0.99776
3812.89383	0.99700
3810.84168	0.99669
3808.78953	0.99725
3806.73738	0.99804
3804.68523	0.99819
3802.63308	0.99816
3800.58093	0.99784
3798.52878	0.99756
3796.47663	0.99771
3794.42448	0.99751
3792.37233	0.99699
3790.32018	0.99668
3788.26803	0.99657
3786.21588	0.99662
3784.16374	0.99676
3782.11159	0.99695
3780.05944	0.99708
3778.00729	0.99679
3775.95514	0.99645
3773.90299	0.99668
3771.85084	0.99711
3769.79869	0.99702
3767.74654	0.99675
3765.69439	0.99677
3763.64224	0.99683
3761.59009	0.99692
3759.53794	0.99713
3757.48579	0.99732
3755.43364	0.99768
3753.38149	0.99872
3751.32934	0.99998
3749.27719	1.00000
3747.22504	0.99951
3745.17289	0.99928
3743.12074	0.99890
3741.06859	0.99855
3739.01645	0.99851
3736.96430	0.99881
3734.91215	0.99922
3732.86000	0.99911
3730.80785	0.99827
3728.75570	0.99746
3726.70355	0.99733
3724.65140	0.99746
3722.59925	0.99732
3720.54710	0.99716
3718.49495	0.99709
3716.44280	0.99723
3714.39065	0.99787
3712.33850	0.99872
3710.28635	0.99824
3708.23420	0.99692
3706.18205	0.99631
3704.12990	0.99648
3702.07775	0.99698
3700.02560	0.99699
3697.97345	0.99670
3695.92131	0.99658
3693.86916	0.99682
3691.81701	0.99762
3689.76486	0.99798
3687.71271	0.99712
3685.66056	0.99621
3683.60841	0.99575
3681.55626	0.99597
3679.50411	0.99666
3677.45196	0.99715
3675.39981	0.99677
3673.34766	0.99591
3671.29551	0.99572
3669.24336	0.99570
3667.19121	0.99532
3665.13906	0.99520
3663.08691	0.99547
3661.03476	0.99571
3658.98261	0.99565
3656.93046	0.99542
3654.87831	0.99533
3652.82617	0.99573
3650.77402	0.99663
3648.72187	0.99662
3646.66972	0.99492
3644.61757	0.99357
3642.56542	0.99313
3640.51327	0.99317
3638.46112	0.99297
3636.40897	0.99247
3634.35682	0.99218
3632.30467	0.99238
3630.25252	0.99287
3628.20037	0.99220
3626.14822	0.99054
3624.09607	0.98982
3622.04392	0.98993
3619.99177	0.99012
3617.93962	0.98970
3615.88747	0.98907
3613.83532	0.98854
3611.78317	0.98783
3609.73102	0.98710
3607.67888	0.98611
3605.62673	0.98473
3603.57458	0.98381
3601.52243	0.98362
3599.47028	0.98351
3597.41813	0.98299
3595.36598	0.98198
3593.31383	0.98080
3591.26168	0.98009
3589.20953	0.97976
3587.15738	0.97868
3585.10523	0.97691
3583.05308	0.97563
3581.00093	0.97469
3578.94878	0.97381
3576.89663	0.97296
3574.84448	0.97178
3572.79233	0.97027
3570.74018	0.96913
3568.68803	0.96836
3566.63588	0.96706
3564.58374	0.96517
3562.53159	0.96333
3560.47944	0.96153
3558.42729	0.95969
3556.37514	0.95821
3554.32299	0.95712
3552.27084	0.95554
3550.21869	0.95343
3548.16654	0.95161
3546.11439	0.94999
3544.06224	0.94810
3542.01009	0.94597
3539.95794	0.94365
3537.90579	0.94148
3535.85364	0.93938
3533.80149	0.93707
3531.74934	0.93477
3529.69719	0.93270
3527.64504	0.93059
3525.59289	0.92826
3523.54074	0.92568
3521.48860	0.92291
3519.43645	0.92038
3517.38430	0.91798
3515.33215	0.91537
3513.28000	0.91265
3511.22785	0.90983
3509.17570	0.90692
3507.12355	0.90419
3505.07140	0.90153
3503.01925	0.89875
3500.96710	0.89602
3498.91495	0.89327
3496.86280	0.89020
3494.81065	0.88695
3492.75850	0.88384
3490.70635	0.88107
3488.65420	0.87843
3486.60205	0.87553
3484.54990	0.87235
3482.49775	0.86912
3480.44560	0.86594
3478.39345	0.86277
3476.34131	0.85982
3474.28916	0.85728
3472.23701	0.85484
3470.18486	0.85226
3468.13271	0.84966
3466.08056	0.84703
3464.02841	0.84422
3461.97626	0.84143
3459.92411	0.83874
3457.87196	0.83605
3455.81981	0.83338
3453.76766	0.83065
3451.71551	0.82784
3449.66336	0.82510
3447.61121	0.82255
3445.55906	0.82024
3443.50691	0.81813
3441.45476	0.81571
3439.40261	0.81303
3437.35046	0.81056
3435.29831	0.80810
3433.24617	0.80554
3431.19402	0.80318
3429.14187	0.80112
3427.08972	0.79920
3425.03757	0.79720
3422.98542	0.79493
3420.93327	0.79252
3418.88112	0.79022
3416.82897	0.78818
3414.77682	0.78630
3412.72467	0.78449
3410.67252	0.78256
3408.62037	0.78048
3406.56822	0.77869
3404.51607	0.77726
3402.46392	0.77558
3400.41177	0.77349
3398.35962	0.77159
3396.30747	0.76987
3394.25532	0.76806
3392.20317	0.76633
3390.15103	0.76483
3388.09888	0.76341
3386.04673	0.76194
3383.99458	0.76043
3381.94243	0.75893
3379.89028	0.75756
3377.83813	0.75625
3375.78598	0.75493
3373.73383	0.75362
3371.68168	0.75246
3369.62953	0.75157
3367.57738	0.75067
3365.52523	0.74943
3363.47308	0.74816
3361.42093	0.74726
3359.36878	0.74651
3357.31663	0.74560
3355.26448	0.74475
3353.21233	0.74411
3351.16018	0.74350
3349.10803	0.74291
3347.05588	0.74245
3345.00374	0.74218
3342.95159	0.74184
3340.89944	0.74137
3338.84729	0.74111
3336.79514	0.74115
3334.74299	0.74104
3332.69084	0.74070
3330.63869	0.74062
3328.58654	0.74085
3326.53439	0.74103
3324.48224	0.74120
3322.43009	0.74156
3320.37794	0.74202
3318.32579	0.74251
3316.27364	0.74296
3314.22149	0.74345
3312.16934	0.74429
3310.11719	0.74549
3308.06504	0.74663
3306.01289	0.74743
3303.96074	0.74808
3301.90860	0.74884
3299.85645	0.74987
3297.80430	0.75101
3295.75215	0.75204
3293.70000	0.75311
3291.64785	0.75431
3289.59570	0.75545
3287.54355	0.75652
3285.49140	0.75778
3283.43925	0.75933
3281.38710	0.76102
3279.33495	0.76277
3277.28280	0.76444
3275.23065	0.76602
3273.17850	0.76772
3271.12635	0.76954
3269.07420	0.77141
3267.02205	0.77333
3264.96990	0.77511
3262.91775	0.77663
3260.86560	0.77832
3258.81346	0.78034
3256.76131	0.78251
3254.70916	0.78476
3252.65701	0.78691
3250.60486	0.78893
3248.55271	0.79108
3246.50056	0.79333
3244.44841	0.79550
3242.39626	0.79768
3240.34411	0.79995
3238.29196	0.80246
3236.23981	0.80511
3234.18766	0.80759
3232.13551	0.80994
3230.08336	0.81233
3228.03121	0.81470
3225.97906	0.81711
3223.92691	0.81965
3221.87476	0.82228
3219.82261	0.82481
3217.77046	0.82729
3215.71832	0.82989
3213.66617	0.83256
3211.61402	0.83520
3209.56187	0.83758
3207.50972	0.83983
3205.45757	0.84224
3203.40542	0.84481
3201.35327	0.84735
3199.30112	0.84992
3197.24897	0.85252
3195.19682	0.85500
3193.14467	0.85748
3191.09252	0.85999
3189.04037	0.86235
3186.98822	0.86464
3184.93607	0.86706
3182.88392	0.86954
3180.83177	0.87193
3178.77962	0.87428
3176.72747	0.87655
3174.67532	0.87878
3172.62317	0.88099
3170.57103	0.88300
3168.51888	0.88497
3166.46673	0.88710
3164.41458	0.88925
3162.36243	0.89141
3160.31028	0.89346
3158.25813	0.89533
3156.20598	0.89728
3154.15383	0.89928
3152.10168	0.90119
3150.04953	0.90304
3147.99738	0.90483
3145.94523	0.90653
3143.89308	0.90821
3141.84093	0.90988
3139.78878	0.91154
3137.73663	0.91319
3135.68448	0.91481
3133.63233	0.91638
3131.58018	0.91788
3129.52803	0.91951
3127.47589	0.92108
3125.42374	0.92252
3123.37159	0.92404
3121.31944	0.92552
3119.26729	0.92682
3117.21514	0.92800
3115.16299	0.92922
3113.11084	0.93046
3111.05869	0.93171
3109.00654	0.93306
3106.95439	0.93432
3104.90224	0.93528
3102.85009	0.93623
3100.79794	0.93739
3098.74579	0.93855
3096.69364	0.93954
3094.64149	0.94029
3092.58934	0.94088
3090.53719	0.94168
3088.48504	0.94283
3086.43289	0.94390
3084.38075	0.94469
3082.32860	0.94542
3080.27645	0.94628
3078.22430	0.94711
3076.17215	0.94779
3074.12000	0.94854
3072.06785	0.94950
3070.01570	0.95038
3067.96355	0.95097
3065.91140	0.95154
3063.85925	0.95214
3061.80710	0.95260
3059.75495	0.95313
3057.70280	0.95379
3055.65065	0.95432
3053.59850	0.95483
3051.54635	0.95542
3049.49420	0.95594
3047.44205	0.95638
3045.38990	0.95675
3043.33775	0.95707
3041.28560	0.95744
3039.23346	0.95780
3037.18131	0.95809
3035.12916	0.95841
3033.07701	0.95880
3031.02486	0.95913
3028.97271	0.95933
3026.92056	0.95940
3024.86841	0.95946
3022.81626	0.95956
3020.76411	0.95954
3018.71196	0.95952
3016.65981	0.95958
3014.60766	0.95954
3012.55551	0.95940
3010.50336	0.95921
3008.45121	0.95891
3006.39906	0.95845
3004.34691	0.95793
3002.29476	0.95745
3000.24261	0.95682
2998.19046	0.95581
2996.13832	0.95422
2994.08617	0.95229
2992.03402	0.95030
2989.98187	0.94784
2987.92972	0.94457
2985.87757	0.94048
2983.82542	0.93550
2981.77327	0.92944
2979.72112	0.92235
2977.66897	0.91447
2975.61682	0.90580
2973.56467	0.89608
2971.51252	0.88536
2969.46037	0.87403
2967.40822	0.86247
2965.35607	0.85086
2963.30392	0.83917
2961.25177	0.82739
2959.19962	0.81571
2957.14747	0.80432
2955.09532	0.79320
2953.04318	0.78232
2950.99103	0.77215
2948.93888	0.76364
2946.88673	0.75750
2944.83458	0.75379
2942.78243	0.75231
2940.73028	0.75258
2938.67813	0.75378
2936.62598	0.75523
2934.57383	0.75650
2932.52168	0.75755
2930.46953	0.75873
2928.41738	0.76052
2926.36523	0.76313
2924.31308	0.76653
2922.26093	0.77067
2920.20878	0.77563
2918.15663	0.78121
2916.10448	0.78707
2914.05233	0.79285
2912.00018	0.79822
2909.94803	0.80288
2907.89589	0.80654
2905.84374	0.80884
2903.79159	0.80927
2901.73944	0.80765
2899.68729	0.80421
2897.63514	0.79907
2895.58299	0.79230
2893.53084	0.78421
2891.47869	0.77513
2889.42654	0.76529
2887.37439	0.75502
2885.32224	0.74484
2883.27009	0.73507
2881.21794	0.72587
2879.16579	0.71754
2877.11364	0.71032
2875.06149	0.70428
2873.00934	0.69951
2870.95719	0.69624
2868.90504	0.69457
2866.85289	0.69451
2864.80075	0.69609
2862.74860	0.69960
2860.69645	0.70498
2858.64430	0.71195
2856.59215	0.72054
2854.54000	0.73077
2852.48785	0.74247
2850.43570	0.75526
2848.38355	0.76852
2846.33140	0.78195
2844.27925	0.79557
2842.22710	0.80890
2840.17495	0.82123
2838.12280	0.83218
2836.07065	0.84179
2834.01850	0.85040
2831.96635	0.85821
2829.91420	0.86513
2827.86205	0.87111
2825.80990	0.87636
2823.75775	0.88101
2821.70561	0.88488
2819.65346	0.88787
2817.60131	0.89016
2815.54916	0.89189
2813.49701	0.89313
2811.44486	0.89398
2809.39271	0.89467
2807.34056	0.89546
2805.28841	0.89654
2803.23626	0.89799
2801.18411	0.89989
2799.13196	0.90236
2797.07981	0.90548
2795.02766	0.90902
2792.97551	0.91261
2790.92336	0.91617
2788.87121	0.91977
2786.81906	0.92317
2784.76691	0.92617
2782.71476	0.92872
2780.66261	0.93094
2778.61046	0.93290
2776.55832	0.93444
2774.50617	0.93554
2772.45402	0.93644
2770.40187	0.93732
2768.34972	0.93814
2766.29757	0.93889
2764.24542	0.93951
2762.19327	0.93997
2760.14112	0.94044
2758.08897	0.94092
2756.03682	0.94129
2753.98467	0.94152
2751.93252	0.94172
2749.88037	0.94203
2747.82822	0.94240
2745.77607	0.94280
2743.72392	0.94330
2741.67177	0.94380
2739.61962	0.94427
2737.56747	0.94477
2735.51532	0.94530
2733.46318	0.94582
2731.41103	0.94629
2729.35888	0.94668
2727.30673	0.94712
2725.25458	0.94769
2723.20243	0.94838
2721.15028	0.94918
2719.09813	0.95000
2717.04598	0.95084
2714.99383	0.95177
2712.94168	0.95280
2710.88953	0.95385
2708.83738	0.95481
2706.78523	0.95566
2704.73308	0.95665
2702.68093	0.95769
2700.62878	0.95830
2698.57663	0.95862
2696.52448	0.95923
2694.47233	0.96010
2692.42018	0.96082
2690.36804	0.96132
2688.31589	0.96189
2686.26374	0.96273
2684.21159	0.96361
2682.15944	0.96426
2680.10729	0.96474
2678.05514	0.96527
2676.00299	0.96605
2673.95084	0.96689
2671.89869	0.96748
2669.84654	0.96790
2667.79439	0.96835
2665.74224	0.96877
2663.69009	0.96911
2661.63794	0.96940
2659.58579	0.96970
2657.53364	0.97010
2655.48149	0.97048
2653.42934	0.97071
2651.37719	0.97094
2649.32504	0.97131
2647.27289	0.97164
2645.22075	0.97189
2643.16860	0.97228
2641.11645	0.97263
2639.06430	0.97270
2637.01215	0.97288
2634.96000	0.97336
2632.90785	0.97367
2630.85570	0.97378
2628.80355	0.97411
2626.75140	0.97457
2624.69925	0.97488
2622.64710	0.97524
2620.59495	0.97566
2618.54280	0.97579
2616.49065	0.97569
2614.43850	0.97568
2612.38635	0.97600
2610.33420	0.97655
2608.28205	0.97687
2606.22990	0.97697
2604.17775	0.97720
2602.12561	0.97744
2600.07346	0.97753
2598.02131	0.97768
2595.96916	0.97798
2593.91701	0.97819
2591.86486	0.97815
2589.81271	0.97823
2587.76056	0.97862
2585.70841	0.97887
2583.65626	0.97885
2581.60411	0.97905
2579.55196	0.97950
2577.49981	0.97986
2575.44766	0.98013
2573.39551	0.98030
2571.34336	0.98036
2569.29121	0.98045
2567.23906	0.98058
2565.18691	0.98062
2563.13476	0.98053
2561.08261	0.98057
2559.03047	0.98096
2556.97832	0.98142
2554.92617	0.98142
2552.87402	0.98108
2550.82187	0.98092
2548.76972	0.98096
2546.71757	0.98103
2544.66542	0.98116
2542.61327	0.98144
2540.56112	0.98170
2538.50897	0.98193
2536.45682	0.98207
2534.40467	0.98200
2532.35252	0.98195
2530.30037	0.98196
2528.24822	0.98184
2526.19607	0.98179
2524.14392	0.98226
2522.09177	0.98300
2520.03962	0.98330
2517.98747	0.98319
2515.93532	0.98313
2513.88318	0.98307
2511.83103	0.98297
2509.77888	0.98292
2507.72673	0.98283
2505.67458	0.98278
2503.62243	0.98307
2501.57028	0.98345
2499.51813	0.98350
2497.46598	0.98351
2495.41383	0.98370
2493.36168	0.98390
2491.30953	0.98399
2489.25738	0.98385
2487.20523	0.98378
2485.15308	0.98415
2483.10093	0.98461
2481.04878	0.98495
2478.99663	0.98513
2476.94448	0.98513
2474.89233	0.98522
2472.84018	0.98540
2470.78804	0.98564
2468.73589	0.98589
2466.68374	0.98602
2464.63159	0.98614
2462.57944	0.98636
2460.52729	0.98657
2458.47514	0.98654
2456.42299	0.98646
2454.37084	0.98656
2452.31869	0.98673
2450.26654	0.98704
2448.21439	0.98745
2446.16224	0.98758
2444.11009	0.98747
2442.05794	0.98752
2440.00579	0.98775
2437.95364	0.98779
2435.90149	0.98770
2433.84934	0.98784
2431.79719	0.98821
2429.74504	0.98845
2427.69290	0.98850
2425.64075	0.98856
2423.58860	0.98848
2421.53645	0.98837
2419.48430	0.98835
2417.43215	0.98820
2415.38000	0.98809
2413.32785	0.98813
2411.27570	0.98813
2409.22355	0.98810
2407.17140	0.98824
2405.11925	0.98827
2403.06710	0.98824
2401.01495	0.98851
2398.96280	0.98877
2396.91065	0.98866
2394.85850	0.98842
2392.80635	0.98834
2390.75420	0.98830
2388.70205	0.98828
2386.64990	0.98840
2384.59775	0.98851
2382.54561	0.98847
2380.49346	0.98844
2378.44131	0.98838
2376.38916	0.98808
2374.33701	0.98768
2372.28486	0.98751
2370.23271	0.98772
2368.18056	0.98801
2366.12841	0.98822
2364.07626	0.98809
2362.02411	0.98765
2359.97196	0.98766
2357.91981	0.98805
2355.86766	0.98815
2353.81551	0.98776
2351.76336	0.98726
2349.71121	0.98713
2347.65906	0.98722
2345.60691	0.98733
2343.55476	0.98761
2341.50261	0.98798
2339.45047	0.98801
2337.39832	0.98778
2335.34617	0.98795
2333.29402	0.98867
2331.24187	0.98907
2329.18972	0.98887
2327.13757	0.98874
2325.08542	0.98890
2323.03327	0.98924
2320.98112	0.98957
2318.92897	0.98958
2316.87682	0.98951
2314.82467	0.98959
2312.77252	0.98974
2310.72037	0.98991
2308.66822	0.98979
2306.61607	0.98955
2304.56392	0.98974
2302.51177	0.99008
2300.45962	0.99024
2298.40747	0.99029
2296.35533	0.99021
2294.30318	0.99013
2292.25103	0.99027
2290.19888	0.99050
2288.14673	0.99057
2286.09458	0.99057
2284.04243	0.99075
2281.99028	0.99127
2279.93813	0.99174
2277.88598	0.99152
2275.83383	0.99105
2273.78168	0.99105
2271.72953	0.99141
2269.67738	0.99169
2267.62523	0.99202
2265.57308	0.99250
2263.52093	0.99274
2261.46878	0.99293
2259.41663	0.99332
2257.36448	0.99341
2255.31233	0.99290
2253.26018	0.99261
2251.20804	0.99326
2249.15589	0.99423
2247.10374	0.99456
2245.05159	0.99381
2242.99944	0.99266
2240.94729	0.99214
2238.89514	0.99256
2236.84299	0.99321
2234.79084	0.99318
2232.73869	0.99301
2230.68654	0.99344
2228.63439	0.99395
2226.58224	0.99386
2224.53009	0.99349
2222.47794	0.99349
2220.42579	0.99376
2218.37364	0.99400
2216.32149	0.99395
2214.26934	0.99383
2212.21719	0.99410
2210.16504	0.99450
2208.11290	0.99466
2206.06075	0.99449
2204.00860	0.99399
2201.95645	0.99350
2199.90430	0.99348
2197.85215	0.99407
2195.80000	0.99499
2193.74785	0.99565
2191.69570	0.99587
2189.64355	0.99601
2187.59140	0.99596
2185.53925	0.99586
2183.48710	0.99611
2181.43495	0.99589
2179.38280	0.99504
2177.33065	0.99507
2175.27850	0.99635
2173.22635	0.99757
2171.17420	0.99784
2169.12205	0.99783
2167.06990	0.99843
2165.01776	0.99931
2162.96561	0.99967
2160.91346	0.99974
2158.86131	1.00000
2156.80916	0.99952
2154.75701	0.99775
2152.70486	0.99659
2150.65271	0.99683
2148.60056	0.99657
2146.54841	0.99556
2144.49626	0.99519
2142.44411	0.99534
2140.39196	0.99538
2138.33981	0.99521
2136.28766	0.99469
2134.23551	0.99390
2132.18336	0.99382
2130.13121	0.99445
2128.07906	0.99464
2126.02691	0.99452
2123.97476	0.99422
2121.92262	0.99358
2119.87047	0.99343
2117.81832	0.99380
2115.76617	0.99396
2113.71402	0.99430
2111.66187	0.99502
2109.60972	0.99526
2107.55757	0.99463
2105.50542	0.99379
2103.45327	0.99346
2101.40112	0.99377
2099.34897	0.99428
2097.29682	0.99454
2095.24467	0.99473
2093.19252	0.99492
2091.14037	0.99486
2089.08822	0.99468
2087.03607	0.99459
2084.98392	0.99453
2082.93177	0.99465
2080.87962	0.99540
2078.82747	0.99638
2076.77533	0.99637
2074.72318	0.99567
2072.67103	0.99538
2070.61888	0.99545
2068.56673	0.99536
2066.51458	0.99509
2064.46243	0.99459
2062.41028	0.99366
2060.35813	0.99331
2058.30598	0.99446
2056.25383	0.99583
2054.20168	0.99603
2052.14953	0.99596
2050.09738	0.99684
2048.04523	0.99753
2045.99308	0.99668
2043.94093	0.99549
2041.88878	0.99536
2039.83663	0.99649
2037.78448	0.99758
2035.73233	0.99728
2033.68019	0.99672
2031.62804	0.99697
2029.57589	0.99762
2027.52374	0.99806
2025.47159	0.99766
2023.41944	0.99706
2021.36729	0.99715
2019.31514	0.99739
2017.26299	0.99717
2015.21084	0.99651
2013.15869	0.99622
2011.10654	0.99696
2009.05439	0.99799
2007.00224	0.99848
2004.95009	0.99836
2002.89794	0.99775
2000.84579	0.99751
1998.79364	0.99794
1996.74149	0.99819
1994.68934	0.99822
1992.63719	0.99857
1990.58505	0.99943
1988.53290	1.00000
1986.48075	0.99956
1984.42860	0.99919
1982.37645	0.99977
1980.32430	1.00027
1978.27215	0.99970
1976.22000	0.99883
1974.16785	0.99866
1972.11570	0.99854
1970.06355	0.99851
1968.01140	0.99960
1965.95925	1.00053
1963.90710	1.00002
1961.85495	0.99976
1959.80280	0.99993
1957.75065	0.99941
1955.69850	0.99927
1953.64635	0.99981
1951.59420	0.99975
1949.54205	0.99936
1947.48990	0.99945
1945.43776	0.99939
1943.38561	0.99881
1941.33346	0.99830
1939.28131	0.99805
1937.22916	0.99810
1935.17701	0.99877
1933.12486	0.99977
1931.07271	0.99998
1929.02056	0.99926
1926.96841	0.99874
1924.91626	0.99851
1922.86411	0.99802
1920.81196	0.99785
1918.75981	0.99816
1916.70766	0.99841
1914.65551	0.99861
1912.60336	0.99884
1910.55121	0.99912
1908.49906	0.99941
1906.44691	0.99935
1904.39476	0.99895
1902.34262	0.99866
1900.29047	0.99854
1898.23832	0.99864
1896.18617	0.99892
1894.13402	0.99900
1892.08187	0.99886
1890.02972	0.99887
1887.97757	0.99903
1885.92542	0.99894
1883.87327	0.99855
1881.82112	0.99818
1879.76897	0.99803
1877.71682	0.99809
1875.66467	0.99835
1873.61252	0.99860
1871.56037	0.99888
1869.50822	0.99912
1867.45607	0.99874
1865.40392	0.99838
1863.35177	0.99853
1861.29962	0.99878
1859.24748	0.99906
1857.19533	0.99925
1855.14318	0.99901
1853.09103	0.99862
1851.03888	0.99870
1848.98673	0.99917
1846.93458	0.99955
1844.88243	0.99971
1842.83028	0.99947
1840.77813	0.99913
1838.72598	0.99911
1836.67383	0.99915
1834.62168	0.99911
1832.56953	0.99928
1830.51738	0.99933
1828.46523	0.99906
1826.41308	0.99900
1824.36093	0.99905
1822.30878	0.99892
1820.25663	0.99883
1818.20448	0.99886
1816.15233	0.99881
1814.10019	0.99877
1812.04804	0.99914
1809.99589	0.99967
1807.94374	0.99975
1805.89159	0.99958
1803.83944	0.99964
1801.78729	0.99988
1799.73514	0.99993
1797.68299	0.99965
1795.63084	0.99945
1793.57869	0.99967
1791.52654	0.99981
1789.47439	0.99953
1787.42224	0.99935
1785.37009	0.99933
1783.31794	0.99932
1781.26579	0.99926
1779.21364	0.99907
1777.16149	0.99912
1775.10934	0.99950
1773.05719	0.99970
1771.00505	0.99936
1768.95290	0.99887
1766.90075	0.99857
1764.84860	0.99857
1762.79645	0.99870
1760.74430	0.99865
1758.69215	0.99861
1756.64000	0.99856
1754.58785	0.99838
1752.53570	0.99845
1750.48355	0.99865
1748.43140	0.99867
1746.37925	0.99862
1744.32710	0.99860
1742.27495	0.99854
1740.22280	0.99824
1738.17065	0.99798
1736.11850	0.99846
1734.06635	0.99917
1732.01420	0.99888
1729.96205	0.99856
1727.90991	0.99862
1725.85776	0.99879
1723.80561	0.99895
1721.75346	0.99912
1719.70131	0.99956
1717.64916	1.00000
1715.59701	0.99930
1713.54486	0.99804
1711.49271	0.99716
1709.44056	0.99674
1707.38841	0.99680
1705.33626	0.99700
1703.28411	0.99708
1701.23196	0.99730
1699.17981	0.99759
1697.12766	0.99734
1695.07551	0.99631
1693.02336	0.99543
1690.97121	0.99521
1688.91906	0.99523
1686.86691	0.99555
1684.81476	0.99609
1682.76262	0.99518
1680.71047	0.99365
1678.65832	0.99277
1676.60617	0.99245
1674.55402	0.99221
1672.50187	0.99194
1670.44972	0.99177
1668.39757	0.99117
1666.34542	0.99054
1664.29327	0.99047
1662.24112	0.99061
1660.18897	0.99050
1658.13682	0.99061
1656.08467	0.99134
1654.03252	0.99260
1651.98037	0.99275
1649.92822	0.99236
1647.87607	0.99273
1645.82392	0.99294
1643.77177	0.99271
1641.71962	0.99285
1639.66748	0.99349
1637.61533	0.99445
1635.56318	0.99496
1633.51103	0.99437
1631.45888	0.99408
1629.40673	0.99450
1627.35458	0.99519
1625.30243	0.99604
1623.25028	0.99676
1621.19813	0.99694
1619.14598	0.99726
1617.09383	0.99776
1615.04168	0.99765
1612.98953	0.99755
1610.93738	0.99779
1608.88523	0.99802
1606.83308	0.99797
1604.78093	0.99784
1602.72878	0.99790
1600.67663	0.99805
1598.62448	0.99812
1596.57234	0.99820
1594.52019	0.99835
1592.46804	0.99834
1590.41589	0.99821
1588.36374	0.99813
1586.31159	0.99813
1584.25944	0.99808
1582.20729	0.99801
1580.15514	0.99819
1578.10299	0.99893
1576.05084	0.99944
1573.99869	0.99884
1571.94654	0.99851
1569.89439	0.99855
1567.84224	0.99814
1565.79009	0.99778
1563.73794	0.99795
1561.68579	0.99871
1559.63364	1.00000
1557.58149	0.99978
1555.52934	0.99856
1553.47719	0.99792
1551.42505	0.99764
1549.37290	0.99737
1547.32075	0.99716
1545.26860	0.99764
1543.21645	0.99884
1541.16430	0.99990
1539.11215	0.99883
1537.06000	0.99739
1535.00785	0.99702
1532.95570	0.99673
1530.90355	0.99609
1528.85140	0.99587
1526.79925	0.99584
1524.74710	0.99582
1522.69495	0.99607
1520.64280	0.99564
1518.59065	0.99464
1516.53850	0.99347
1514.48635	0.99209
1512.43420	0.99122
1510.38205	0.99130
1508.32991	0.99155
1506.27776	0.98889
1504.22561	0.98505
1502.17346	0.98270
1500.12131	0.98026
1498.06916	0.97564
1496.01701	0.96732
1493.96486	0.95823
1491.91271	0.94888
1489.86056	0.93531
1487.80841	0.92019
1485.75626	0.90982
1483.70411	0.90336
1481.65196	0.89858
1479.59981	0.89477
1477.54766	0.89225
1475.49551	0.89076
1473.44336	0.88965
1471.39121	0.88840
1469.33906	0.88853
1467.28691	0.89110
1465.23477	0.89635
1463.18262	0.90193
1461.13047	0.90573
1459.07832	0.90857
1457.02617	0.90991
1454.97402	0.90867
1452.92187	0.90681
1450.86972	0.90431
1448.81757	0.89993
1446.76542	0.89328
1444.71327	0.88611
1442.66112	0.87969
1440.60897	0.87510
1438.55682	0.87318
1436.50467	0.87307
1434.45252	0.87286
1432.40037	0.87134
1430.34822	0.86748
1428.29607	0.86146
1426.24392	0.85559
1424.19177	0.85084
1422.13962	0.84836
1420.08748	0.84940
1418.03533	0.85355
1415.98318	0.85801
1413.93103	0.86197
1411.87888	0.86606
1409.82673	0.87011
1407.77458	0.87383
1405.72243	0.87745
1403.67028	0.88104
1401.61813	0.88431
1399.56598	0.88719
1397.51383	0.88914
1395.46168	0.88937
1393.40953	0.88761
1391.35738	0.88448
1389.30523	0.87986
1387.25308	0.87246
1385.20093	0.86344
1383.14878	0.85494
1381.09663	0.84680
1379.04448	0.83907
1376.99234	0.83232
1374.94019	0.82653
1372.88804	0.82212
1370.83589	0.82076
1368.78374	0.82292
1366.73159	0.82824
1364.67944	0.83620
1362.62729	0.84602
1360.57514	0.85447
1358.52299	0.85961
1356.47084	0.86224
1354.41869	0.86280
1352.36654	0.86248
1350.31439	0.86313
1348.26224	0.86605
1346.21009	0.87173
1344.15794	0.87956
1342.10579	0.88793
1340.05364	0.89555
1338.00149	0.90128
1335.94934	0.90486
1333.89720	0.90714
1331.84505	0.90850
1329.79290	0.90895
1327.74075	0.90882
1325.68860	0.90874
1323.63645	0.90883
1321.58430	0.90894
1319.53215	0.90945
1317.48000	0.91079
1315.42785	0.91295
1313.37570	0.91539
1311.32355	0.91727
1309.27140	0.91809
1307.21925	0.91784
1305.16710	0.91678
1303.11495	0.91531
1301.06280	0.91386
1299.01065	0.91265
1296.95850	0.91177
1294.90635	0.91148
1292.85420	0.91218
1290.80205	0.91427
1288.74991	0.91786
1286.69776	0.92258
1284.64561	0.92778
1282.59346	0.93292
1280.54131	0.93764
1278.48916	0.94147
1276.43701	0.94392
1274.38486	0.94500
1272.33271	0.94504
1270.28056	0.94429
1268.22841	0.94284
1266.17626	0.94094
1264.12411	0.93898
1262.07196	0.93698
1260.01981	0.93477
1257.96766	0.93247
1255.91551	0.93041
1253.86336	0.92857
1251.81121	0.92678
1249.75906	0.92506
1247.70691	0.92343
1245.65477	0.92190
1243.60262	0.92062
1241.55047	0.91961
1239.49832	0.91879
1237.44617	0.91840
1235.39402	0.91868
1233.34187	0.91942
1231.28972	0.92064
1229.23757	0.92225
1227.18542	0.92394
1225.13327	0.92537
1223.08112	0.92621
1221.02897	0.92645
1218.97682	0.92623
1216.92467	0.92554
1214.87252	0.92463
1212.82037	0.92372
1210.76822	0.92276
1208.71607	0.92193
1206.66392	0.92158
1204.61177	0.92166
1202.55963	0.92208
1200.50748	0.92287
1198.45533	0.92388
1196.40318	0.92513
1194.35103	0.92694
1192.29888	0.92963
1190.24673	0.93331
1188.19458	0.93761
1186.14243	0.94208
1184.09028	0.94651
1182.03813	0.95086
1179.98598	0.95501
1177.93383	0.95881
1175.88168	0.96245
1173.82953	0.96592
1171.77738	0.96885
1169.72523	0.97114
1167.67308	0.97280
1165.62093	0.97374
1163.56878	0.97379
1161.51663	0.97259
1159.46448	0.96998
1157.41234	0.96604
1155.36019	0.96070
1153.30804	0.95386
1151.25589	0.94533
1149.20374	0.93520
1147.15159	0.92385
1145.09944	0.91159
1143.04729	0.89829
1140.99514	0.88341
1138.94299	0.86630
1136.89084	0.84612
1134.83869	0.82204
1132.78654	0.79381
1130.73439	0.76195
1128.68224	0.72772
1126.63009	0.69296
1124.57794	0.65946
1122.52579	0.62874
1120.47364	0.60182
1118.42149	0.57917
1116.36934	0.56087
1114.31720	0.54692
1112.26505	0.53707
1110.21290	0.53074
1108.16075	0.52723
1106.10860	0.52595
1104.05645	0.52614
1102.00430	0.52702
1099.95215	0.52826
1097.90000	0.53007
1095.84785	0.53290
1093.79570	0.53722
1091.74355	0.54309
1089.69140	0.54986
1087.63925	0.55642
1085.58710	0.56108
1083.53495	0.56192
1081.48280	0.55767
1079.43065	0.54804
1077.37850	0.53365
1075.32635	0.51566
1073.27420	0.49545
1071.22206	0.47441
1069.16991	0.45381
1067.11776	0.43465
1065.06561	0.41821
1063.01346	0.40591
1060.96131	0.39824
1058.90916	0.39488
1056.85701	0.39540
1054.80486	0.39938
1052.75271	0.40630
1050.70056	0.41547
1048.64841	0.42590
1046.59626	0.43646
1044.54411	0.44626
1042.49196	0.45432
1040.43981	0.45970
1038.38766	0.46289
1036.33551	0.46584
1034.28336	0.47071
1032.23121	0.47948
1030.17906	0.49332
1028.12692	0.51225
1026.07477	0.53597
1024.02262	0.56391
1021.97047	0.59455
1019.91832	0.62617
1017.86617	0.65744
1015.81402	0.68730
1013.76187	0.71473
1011.70972	0.73883
1009.65757	0.75888
1007.60542	0.77422
1005.55327	0.78472
1003.50112	0.79065
1001.44897	0.79272
999.39682	0.79223
997.34467	0.78989
995.29252	0.78551
993.24037	0.77874
991.18822	0.77011
989.13607	0.76151
987.08392	0.75548
985.03177	0.75383
982.97963	0.75660
980.92748	0.76250
978.87533	0.77032
976.82318	0.77935
974.77103	0.78894
972.71888	0.79841
970.66673	0.80745
968.61458	0.81561
966.56243	0.82206
964.51028	0.82633
962.45813	0.82894
960.40598	0.83098
958.35383	0.83318
956.30168	0.83567
954.24953	0.83780
952.19738	0.83822
950.14523	0.83604
948.09308	0.83154
946.04093	0.82563
943.98878	0.81989
941.93663	0.81632
939.88449	0.81609
937.83234	0.81887
935.78019	0.82296
933.72804	0.82611
931.67589	0.82641
929.62374	0.82280
927.57159	0.81575
925.51944	0.80695
923.46729	0.79839
921.41514	0.79214
919.36299	0.79022
917.31084	0.79356
915.25869	0.80195
913.20654	0.81464
911.15439	0.83022
909.10224	0.84689
907.05009	0.86377
904.99794	0.88002
902.94579	0.89436
900.89364	0.90672
898.84149	0.91754
896.78935	0.92671
894.73720	0.93439
892.68505	0.94115
890.63290	0.94709
888.58075	0.95197
886.52860	0.95586
884.47645	0.95893
882.42430	0.96141
880.37215	0.96329
878.32000	0.96436
876.26785	0.96497
874.21570	0.96560
872.16355	0.96599
870.11140	0.96607
868.05925	0.96676
866.00710	0.96893
863.95495	0.97270
861.90280	0.97750
859.85065	0.98252
857.79850	0.98736
855.74635	0.99164
853.69420	0.99476
851.64206	0.99652
849.58991	0.99732
847.53776	0.99780
845.48561	0.99846
843.43346	0.99915
841.38131	0.99969
839.32916	1.00000
837.27701	0.99986
835.22486	0.99912
833.17271	0.99781
831.12056	0.99554
829.06841	0.99219
827.01626	0.98845
824.96411	0.98500
822.91196	0.98132
820.85981	0.97761
818.80766	0.97514
816.75551	0.97366
814.70336	0.97215
812.65121	0.97074
810.59906	0.96988
808.54692	0.96952
806.49477	0.96855
804.44262	0.96590
802.39047	0.96226
800.33832	0.95872
798.28617	0.95541
796.23402	0.95204
794.18187	0.94852
792.12972	0.94468
790.07757	0.94061
788.02542	0.93719
785.97327	0.93470
783.92112	0.93234
781.86897	0.93023
779.81682	0.92917
777.76467	0.92886
775.71252	0.92866
773.66037	0.92841
771.60822	0.92814
769.55607	0.92756
767.50392	0.92646
765.45178	0.92504
763.39963	0.92322
761.34748	0.92077
759.29533	0.91868
757.24318	0.91817
755.19103	0.91855
753.13888	0.91872
751.08673	0.91874
749.03458	0.91906
746.98243	0.91962
744.93028	0.91987
742.87813	0.91969
740.82598	0.91943
738.77383	0.91898
736.72168	0.91810
734.66953	0.91701
732.61738	0.91591
730.56523	0.91447
728.51308	0.91266
726.46093	0.91084
724.40878	0.90901
722.35663	0.90711
720.30449	0.90504
718.25234	0.90316
716.20019	0.90158
714.14804	0.89951
712.09589	0.89713
710.04374	0.89470
707.99159	0.89194
705.93944	0.88919
703.88729	0.88675
701.83514	0.88450
699.78299	0.88198
697.73084	0.87914
695.67869	0.87650
693.62654	0.87433
691.57439	0.87219
689.52224	0.86970
687.47009	0.86724
685.41794	0.86495
683.36579	0.86265
681.31364	0.86036
679.26149	0.85805
677.20935	0.85569
675.15720	0.85327
673.10505	0.85118
671.05290	0.84978
669.00075	0.84802
666.94860	0.84558
664.89645	0.84404
662.84430	0.84242
660.79215	0.83999
658.74000	0.83768
656.68785	0.83596
654.63570	0.83416
652.58355	0.83249
650.53140	0.83128
648.47925	0.82970
646.42710	0.82748
644.37495	0.82541
642.32280	0.82381
640.27065	0.82238
638.21850	0.82082
636.16635	0.81907
634.11421	0.81748
632.06206	0.81584
630.00991	0.81390
627.95776	0.81232
625.90561	0.81125
623.85346	0.80990
621.80131	0.80834
619.74916	0.80763
617.69701	0.80811
615.64486	0.80923
613.59271	0.81016
611.54056	0.81053
609.48841	0.81060
607.43626	0.81048
605.38411	0.81007
603.33196	0.80995
601.27981	0.80998
599.22766	0.80887
597.17551	0.80675
595.12336	0.80529
593.07121	0.80482
591.01906	0.80366
588.96692	0.80193
586.91477	0.80041
584.86262	0.79896
582.81047	0.79861
580.75832	0.79953
578.70617	0.80040
576.65402	0.80062
574.60187	0.80025
572.54972	0.80035
570.49757	0.80206
568.44542	0.80427
566.39327	0.80575
564.34112	0.80761
562.28897	0.81064
560.23682	0.81343
558.18467	0.81454
556.13252	0.81541
554.08037	0.81746
552.02822	0.81955
549.97607	0.82064
547.92392	0.82060
545.87178	0.82036
543.81963	0.82134
541.76748	0.82321
539.71533	0.82439
537.66318	0.82355
535.61103	0.82101
533.55888	0.81792
531.50673	0.81402
529.45458	0.80934
527.40243	0.80628
525.35028	0.80681
523.29813	0.81062
521.24598	0.81680
519.19383	0.82372
517.14168	0.83010
515.08953	0.83588
513.03738	0.84002
510.98523	0.84257
508.93308	0.84506
506.88093	0.84747
504.82878	0.84958
502.77664	0.85239
500.72449	0.85595
498.67234	0.86044
496.62019	0.86558
494.56804	0.86999
492.51589	0.87454
490.46374	0.87981
488.41159	0.88469
486.35944	0.88981
484.30729	0.89523
482.25514	0.89849
480.20299	0.90015
478.15084	0.90341
476.09869	0.90864
474.04654	0.91527
471.99439	0.92206
469.94224	0.92693
467.89009	0.92949
465.83794	0.93005
463.78579	0.93220
461.73364	0.93720
459.68149	0.94081
457.62935	0.94059
455.57720	0.93849
453.52505	0.93816
451.47290	0.94013
449.42075	0.94200
447.36860	0.94228
445.31645	0.94167
443.26430	0.94079
441.21215	0.93941
439.16000	0.93858
437.10785	0.93860
435.05570	0.93683
433.00355	0.93370
430.95140	0.93198
428.89925	0.93182
426.84710	0.93381
424.79495	0.93749
422.74280	0.94318
420.69065	0.95405
418.63850	0.96485
416.58635	0.96645
414.53421	0.96489
412.48206	0.96370
410.42991	0.96497
408.37776	0.96685
406.32561	0.96753
404.27346	0.97217
402.22131	0.98040
400.16916	0.98935
398.11701	1.00000
