3997.58729	1.00000
3995.53514	0.99995
3993.48299	0.99988
3991.43084	0.99965
3989.37869	0.99954
3987.32654	0.99964
3985.27439	0.99963
3983.22224	0.99937
3981.17009	0.99908
3979.11794	0.99896
3977.06579	0.99907
3975.01364	0.99927
3972.96149	0.99927
3970.90934	0.99915
3968.85719	0.99900
3966.80504	0.99875
3964.75289	0.99858
3962.70074	0.99866
3960.64859	0.99885
3958.59645	0.99880
3956.54430	0.99851
3954.49215	0.99830
3952.44000	0.99839
3950.38785	0.99865
3948.33570	0.99869
3946.28355	0.99840
3944.23140	0.99809
3942.17925	0.99804
3940.12710	0.99828
3938.07495	0.99844
3936.02280	0.99852
3933.97065	0.99883
3931.91850	0.99895
3929.86635	0.99864
3927.81420	0.99853
3925.76205	0.99863
3923.70990	0.99843
3921.65775	0.99819
3919.60560	0.99831
3917.55345	0.99845
3915.50131	0.99834
3913.44916	0.99813
3911.39701	0.99800
3909.34486	0.99801
3907.29271	0.99820
3905.24056	0.99851
3903.18841	0.99869
3901.13626	0.99870
3899.08411	0.99870
3897.03196	0.99852
3894.97981	0.99812
3892.92766	0.99787
3890.87551	0.99789
3888.82336	0.99811
3886.77121	0.99837
3884.71906	0.99825
3882.66691	0.99817
3880.61476	0.99834
3878.56261	0.99799
3876.51046	0.99760
3874.45831	0.99778
3872.40616	0.99822
3870.35402	0.99844
3868.30187	0.99842
3866.24972	0.99838
3864.19757	0.99812
3862.14542	0.99766
3860.09327	0.99739
3858.04112	0.99744
3855.98897	0.99785
3853.93682	0.99859
3851.88467	0.99871
3849.83252	0.99813
3847.78037	0.99774
3845.72822	0.99758
3843.67607	0.99756
3841.62392	0.99776
3839.57177	0.99784
3837.51962	0.99752
3835.46747	0.99721
3833.41532	0.99724
3831.36317	0.99734
3829.31102	0.99736
3827.25888	0.99740
3825.20673	0.99756
3823.15458	0.99789
3821.10243	0.99807
3819.05028	0.99786
3816.99813	0.99767
3814.94598	0.99737
3812.89383	0.99688
3810.84168	0.99664
3808.78953	0.99700
3806.73738	0.99767
3804.68523	0.99794
3802.63308	0.99790
3800.58093	0.99748
3798.52878	0.99692
3796.47663	0.99672
3794.42448	0.99668
3792.37233	0.99654
3790.32018	0.99648
3788.26803	0.99663
3786.21588	0.99681
3784.16374	0.99691
3782.11159	0.99697
3780.05944	0.99701
3778.00729	0.99671
3775.95514	0.99648
3773.90299	0.99666
3771.85084	0.99695
3769.79869	0.99693
3767.74654	0.99656
3765.69439	0.99624
3763.64224	0.99614
3761.59009	0.99634
3759.53794	0.99672
3757.48579	0.99694
3755.43364	0.99725
3753.38149	0.99793
3751.32934	0.99854
3749.27719	0.99854
3747.22504	0.99862
3745.17289	0.99874
3743.12074	0.99819
3741.06859	0.99765
3739.01645	0.99750
3736.96430	0.99775
3734.91215	0.99836
3732.86000	0.99831
3730.80785	0.99734
3728.75570	0.99638
3726.70355	0.99606
3724.65140	0.99634
3722.59925	0.99658
3720.54710	0.99671
3718.49495	0.99667
3716.44280	0.99638
3714.39065	0.99651
3712.33850	0.99715
3710.28635	0.99720
3708.23420	0.99654
3706.18205	0.99589
3704.12990	0.99559
3702.07775	0.99582
3700.02560	0.99622
3697.97345	0.99627
3695.92131	0.99592
3693.86916	0.99589
3691.81701	0.99684
3689.76486	0.99790
3687.71271	0.99755
3685.66056	0.99642
3683.60841	0.99568
3681.55626	0.99560
3679.50411	0.99572
3677.45196	0.99569
3675.39981	0.99550
3673.34766	0.99538
3671.29551	0.99564
3669.24336	0.99561
3667.19121	0.99515
3665.13906	0.99494
3663.08691	0.99474
3661.03476	0.99426
3658.98261	0.99387
3656.93046	0.99377
3654.87831	0.99368
3652.82617	0.99381
3650.77402	0.99433
3648.72187	0.99430
3646.66972	0.99344
3644.61757	0.99285
3642.56542	0.99251
3640.51327	0.99222
3638.46112	0.99183
3636.40897	0.99143
3634.35682	0.99123
3632.30467	0.99118
3630.25252	0.99116
3628.20037	0.99040
3626.14822	0.98898
3624.09607	0.98809
3622.04392	0.98783
3619.99177	0.98777
3617.93962	0.98704
3615.88747	0.98582
3613.83532	0.98508
3611.78317	0.98479
3609.73102	0.98429
3607.67888	0.98313
3605.62673	0.98178
3603.57458	0.98113
3601.52243	0.98108
3599.47028	0.98076
3597.41813	0.97965
3595.36598	0.97811
3593.31383	0.97673
3591.26168	0.97580
3589.20953	0.97528
3587.15738	0.97445
3585.10523	0.97298
3583.05308	0.97153
3581.00093	0.97023
3578.94878	0.96891
3576.89663	0.96754
3574.84448	0.96624
3572.79233	0.96496
3570.74018	0.96366
3568.68803	0.96243
3566.63588	0.96105
3564.58374	0.95934
3562.53159	0.95744
3560.47944	0.95548
3558.42729	0.95356
3556.37514	0.95183
3554.32299	0.95039
3552.27084	0.94875
3550.21869	0.94673
3548.16654	0.94485
3546.11439	0.94308
3544.06224	0.94098
3542.01009	0.93865
3539.95794	0.93625
3537.90579	0.93373
3535.85364	0.93114
3533.80149	0.92880
3531.74934	0.92666
3529.69719	0.92451
3527.64504	0.92220
3525.59289	0.91970
3523.54074	0.91691
3521.48860	0.91382
3519.43645	0.91087
3517.38430	0.90805
3515.33215	0.90523
3513.28000	0.90244
3511.22785	0.89956
3509.17570	0.89672
3507.12355	0.89391
3505.07140	0.89086
3503.01925	0.88758
3500.96710	0.88448
3498.91495	0.88169
3496.86280	0.87871
3494.81065	0.87529
3492.75850	0.87187
3490.70635	0.86874
3488.65420	0.86560
3486.60205	0.86220
3484.54990	0.85874
3482.49775	0.85528
3480.44560	0.85173
3478.39345	0.84816
3476.34131	0.84466
3474.28916	0.84129
3472.23701	0.83792
3470.18486	0.83450
3468.13271	0.83104
3466.08056	0.82750
3464.02841	0.82389
3461.97626	0.82007
3459.92411	0.81625
3457.87196	0.81273
3455.81981	0.80928
3453.76766	0.80572
3451.71551	0.80214
3449.66336	0.79852
3447.61121	0.79470
3445.55906	0.79089
3443.50691	0.78723
3441.45476	0.78328
3439.40261	0.77932
3437.35046	0.77566
3435.29831	0.77209
3433.24617	0.76857
3431.19402	0.76509
3429.14187	0.76163
3427.08972	0.75796
3425.03757	0.75420
3422.98542	0.75062
3420.93327	0.74695
3418.88112	0.74322
3416.82897	0.73977
3414.77682	0.73641
3412.72467	0.73306
3410.67252	0.72971
3408.62037	0.72613
3406.56822	0.72249
3404.51607	0.71900
3402.46392	0.71558
3400.41177	0.71234
3398.35962	0.70928
3396.30747	0.70598
3394.25532	0.70233
3392.20317	0.69864
3390.15103	0.69514
3388.09888	0.69170
3386.04673	0.68827
3383.99458	0.68492
3381.94243	0.68173
3379.89028	0.67875
3377.83813	0.67562
3375.78598	0.67233
3373.73383	0.66911
3371.68168	0.66603
3369.62953	0.66308
3367.57738	0.66008
3365.52523	0.65698
3363.47308	0.65410
3361.42093	0.65142
3359.36878	0.64857
3357.31663	0.64567
3355.26448	0.64313
3353.21233	0.64078
3351.16018	0.63832
3349.10803	0.63575
3347.05588	0.63322
3345.00374	0.63094
3342.95159	0.62879
3340.89944	0.62673
3338.84729	0.62477
3336.79514	0.62277
3334.74299	0.62071
3332.69084	0.61884
3330.63869	0.61728
3328.58654	0.61590
3326.53439	0.61464
3324.48224	0.61343
3322.43009	0.61210
3320.37794	0.61081
3318.32579	0.60984
3316.27364	0.60904
3314.22149	0.60819
3312.16934	0.60738
3310.11719	0.60680
3308.06504	0.60633
3306.01289	0.60590
3303.96074	0.60557
3301.90860	0.60530
3299.85645	0.60507
3297.80430	0.60493
3295.75215	0.60500
3293.70000	0.60519
3291.64785	0.60536
3289.59570	0.60555
3287.54355	0.60589
3285.49140	0.60643
3283.43925	0.60709
3281.38710	0.60793
3279.33495	0.60887
3277.28280	0.60963
3275.23065	0.61050
3273.17850	0.61178
3271.12635	0.61306
3269.07420	0.61413
3267.02205	0.61534
3264.96990	0.61662
3262.91775	0.61788
3260.86560	0.61950
3258.81346	0.62138
3256.76131	0.62313
3254.70916	0.62486
3252.65701	0.62678
3250.60486	0.62890
3248.55271	0.63101
3246.50056	0.63316
3244.44841	0.63550
3242.39626	0.63795
3240.34411	0.64034
3238.29196	0.64272
3236.23981	0.64526
3234.18766	0.64803
3232.13551	0.65109
3230.08336	0.65413
3228.03121	0.65688
3225.97906	0.65973
3223.92691	0.66282
3221.87476	0.66597
3219.82261	0.66908
3217.77046	0.67212
3215.71832	0.67537
3213.66617	0.67904
3211.61402	0.68274
3209.56187	0.68615
3207.50972	0.68952
3205.45757	0.69325
3203.40542	0.69715
3201.35327	0.70071
3199.30112	0.70421
3197.24897	0.70809
3195.19682	0.71212
3193.14467	0.71601
3191.09252	0.71970
3189.04037	0.72329
3186.98822	0.72703
3184.93607	0.73118
3182.88392	0.73547
3180.83177	0.73952
3178.77962	0.74325
3176.72747	0.74706
3174.67532	0.75113
3172.62317	0.75512
3170.57103	0.75894
3168.51888	0.76276
3166.46673	0.76657
3164.41458	0.77044
3162.36243	0.77451
3160.31028	0.77853
3158.25813	0.78239
3156.20598	0.78614
3154.15383	0.78978
3152.10168	0.79339
3150.04953	0.79699
3147.99738	0.80035
3145.94523	0.80369
3143.89308	0.80733
3141.84093	0.81102
3139.78878	0.81449
3137.73663	0.81783
3135.68448	0.82116
3133.63233	0.82439
3131.58018	0.82753
3129.52803	0.83079
3127.47589	0.83402
3125.42374	0.83700
3123.37159	0.83999
3121.31944	0.84309
3119.26729	0.84611
3117.21514	0.84900
3115.16299	0.85186
3113.11084	0.85465
3111.05869	0.85726
3109.00654	0.85989
3106.95439	0.86260
3104.90224	0.86519
3102.85009	0.86769
3100.79794	0.87011
3098.74579	0.87249
3096.69364	0.87493
3094.64149	0.87732
3092.58934	0.87948
3090.53719	0.88146
3088.48504	0.88349
3086.43289	0.88560
3084.38075	0.88767
3082.32860	0.88966
3080.27645	0.89162
3078.22430	0.89349
3076.17215	0.89526
3074.12000	0.89699
3072.06785	0.89879
3070.01570	0.90064
3067.96355	0.90243
3065.91140	0.90414
3063.85925	0.90568
3061.80710	0.90710
3059.75495	0.90855
3057.70280	0.91001
3055.65065	0.91126
3053.59850	0.91243
3051.54635	0.91380
3049.49420	0.91527
3047.44205	0.91662
3045.38990	0.91776
3043.33775	0.91873
3041.28560	0.91980
3039.23346	0.92107
3037.18131	0.92223
3035.12916	0.92309
3033.07701	0.92386
3031.02486	0.92459
3028.97271	0.92534
3026.92056	0.92616
3024.86841	0.92694
3022.81626	0.92746
3020.76411	0.92782
3018.71196	0.92839
3016.65981	0.92905
3014.60766	0.92947
3012.55551	0.92977
3010.50336	0.93008
3008.45121	0.93022
3006.39906	0.93001
3004.34691	0.92971
3002.29476	0.92946
3000.24261	0.92899
2998.19046	0.92814
2996.13832	0.92685
2994.08617	0.92519
2992.03402	0.92330
2989.98187	0.92095
2987.92972	0.91780
2985.87757	0.91375
2983.82542	0.90872
2981.77327	0.90245
2979.72112	0.89486
2977.66897	0.88611
2975.61682	0.87621
2973.56467	0.86530
2971.51252	0.85367
2969.46037	0.84160
2967.40822	0.82953
2965.35607	0.81790
2963.30392	0.80675
2961.25177	0.79584
2959.19962	0.78479
2957.14747	0.77357
2955.09532	0.76243
2953.04318	0.75149
2950.99103	0.74103
2948.93888	0.73183
2946.88673	0.72463
2944.83458	0.71970
2942.78243	0.71712
2940.73028	0.71670
2938.67813	0.71779
2936.62598	0.71972
2934.57383	0.72215
2932.52168	0.72503
2930.46953	0.72862
2928.41738	0.73317
2926.36523	0.73856
2924.31308	0.74436
2922.26093	0.75011
2920.20878	0.75554
2918.15663	0.76054
2916.10448	0.76500
2914.05233	0.76881
2912.00018	0.77205
2909.94803	0.77490
2907.89589	0.77721
2905.84374	0.77855
2903.79159	0.77848
2901.73944	0.77678
2899.68729	0.77347
2897.63514	0.76861
2895.58299	0.76214
2893.53084	0.75427
2891.47869	0.74559
2889.42654	0.73683
2887.37439	0.72863
2885.32224	0.72164
2883.27009	0.71640
2881.21794	0.71311
2879.16579	0.71187
2877.11364	0.71275
2875.06149	0.71549
2873.00934	0.71961
2870.95719	0.72498
2868.90504	0.73152
2866.85289	0.73895
2864.80075	0.74690
2862.74860	0.75495
2860.69645	0.76257
2858.64430	0.76961
2856.59215	0.77619
2854.54000	0.78243
2852.48785	0.78875
2850.43570	0.79546
2848.38355	0.80231
2846.33140	0.80921
2844.27925	0.81624
2842.22710	0.82311
2840.17495	0.82938
2838.12280	0.83492
2836.07065	0.83989
2834.01850	0.84451
2831.96635	0.84898
2829.91420	0.85332
2827.86205	0.85753
2825.80990	0.86174
2823.75775	0.86589
2821.70561	0.86984
2819.65346	0.87346
2817.60131	0.87693
2815.54916	0.88045
2813.49701	0.88389
2811.44486	0.88714
2809.39271	0.89021
2807.34056	0.89310
2805.28841	0.89593
2803.23626	0.89861
2801.18411	0.90098
2799.13196	0.90315
2797.07981	0.90537
2795.02766	0.90756
2792.97551	0.90943
2790.92336	0.91112
2788.87121	0.91288
2786.81906	0.91461
2784.76691	0.91618
2782.71476	0.91770
2780.66261	0.91921
2778.61046	0.92054
2776.55832	0.92155
2774.50617	0.92232
2772.45402	0.92313
2770.40187	0.92401
2768.34972	0.92484
2766.29757	0.92547
2764.24542	0.92595
2762.19327	0.92653
2760.14112	0.92716
2758.08897	0.92760
2756.03682	0.92783
2753.98467	0.92811
2751.93252	0.92857
2749.88037	0.92904
2747.82822	0.92940
2745.77607	0.92992
2743.72392	0.93065
2741.67177	0.93137
2739.61962	0.93213
2737.56747	0.93292
2735.51532	0.93357
2733.46318	0.93413
2731.41103	0.93460
2729.35888	0.93500
2727.30673	0.93563
2725.25458	0.93656
2723.20243	0.93758
2721.15028	0.93858
2719.09813	0.93944
2717.04598	0.94030
2714.99383	0.94154
2712.94168	0.94300
2710.88953	0.94438
2708.83738	0.94558
2706.78523	0.94662
2704.73308	0.94751
2702.68093	0.94820
2700.62878	0.94875
2698.57663	0.94941
2696.52448	0.95015
2694.47233	0.95081
2692.42018	0.95139
2690.36804	0.95194
2688.31589	0.95258
2686.26374	0.95341
2684.21159	0.95430
2682.15944	0.95490
2680.10729	0.95518
2678.05514	0.95545
2676.00299	0.95594
2673.95084	0.95645
2671.89869	0.95669
2669.84654	0.95680
2667.79439	0.95696
2665.74224	0.95726
2663.69009	0.95765
2661.63794	0.95798
2659.58579	0.95824
2657.53364	0.95853
2655.48149	0.95881
2653.42934	0.95905
2651.37719	0.95941
2649.32504	0.95974
2647.27289	0.95987
2645.22075	0.96007
2643.16860	0.96060
2641.11645	0.96119
2639.06430	0.96152
2637.01215	0.96181
2634.96000	0.96225
2632.90785	0.96274
2630.85570	0.96314
2628.80355	0.96351
2626.75140	0.96385
2624.69925	0.96412
2622.64710	0.96456
2620.59495	0.96521
2618.54280	0.96563
2616.49065	0.96563
2614.43850	0.96567
2612.38635	0.96615
2610.33420	0.96672
2608.28205	0.96692
2606.22990	0.96710
2604.17775	0.96769
2602.12561	0.96834
2600.07346	0.96874
2598.02131	0.96909
2595.96916	0.96933
2593.91701	0.96950
2591.86486	0.96982
2589.81271	0.97029
2587.76056	0.97083
2585.70841	0.97120
2583.65626	0.97143
2581.60411	0.97183
2579.55196	0.97242
2577.49981	0.97292
2575.44766	0.97345
2573.39551	0.97388
2571.34336	0.97403
2569.29121	0.97413
2567.23906	0.97414
2565.18691	0.97402
2563.13476	0.97405
2561.08261	0.97412
2559.03047	0.97417
2556.97832	0.97441
2554.92617	0.97459
2552.87402	0.97470
2550.82187	0.97489
2548.76972	0.97480
2546.71757	0.97449
2544.66542	0.97457
2542.61327	0.97488
2540.56112	0.97498
2538.50897	0.97507
2536.45682	0.97516
2534.40467	0.97504
2532.35252	0.97490
2530.30037	0.97489
2528.24822	0.97498
2526.19607	0.97510
2524.14392	0.97521
2522.09177	0.97544
2520.03962	0.97575
2517.98747	0.97606
2515.93532	0.97630
2513.88318	0.97624
2511.83103	0.97604
2509.77888	0.97606
2507.72673	0.97633
2505.67458	0.97658
2503.62243	0.97675
2501.57028	0.97694
2499.51813	0.97708
2497.46598	0.97725
2495.41383	0.97768
2493.36168	0.97796
2491.30953	0.97780
2489.25738	0.97781
2487.20523	0.97830
2485.15308	0.97902
2483.10093	0.97964
2481.04878	0.97996
2478.99663	0.98023
2476.94448	0.98056
2474.89233	0.98068
2472.84018	0.98076
2470.78804	0.98112
2468.73589	0.98160
2466.68374	0.98174
2464.63159	0.98149
2462.57944	0.98151
2460.52729	0.98209
2458.47514	0.98246
2456.42299	0.98237
2454.37084	0.98244
2452.31869	0.98294
2450.26654	0.98361
2448.21439	0.98414
2446.16224	0.98441
2444.11009	0.98452
2442.05794	0.98454
2440.00579	0.98455
2437.95364	0.98447
2435.90149	0.98432
2433.84934	0.98437
2431.79719	0.98468
2429.74504	0.98493
2427.69290	0.98500
2425.64075	0.98510
2423.58860	0.98526
2421.53645	0.98535
2419.48430	0.98539
2417.43215	0.98535
2415.38000	0.98531
2413.32785	0.98543
2411.27570	0.98553
2409.22355	0.98558
2407.17140	0.98582
2405.11925	0.98608
2403.06710	0.98627
2401.01495	0.98656
2398.96280	0.98670
2396.91065	0.98648
2394.85850	0.98625
2392.80635	0.98636
2390.75420	0.98675
2388.70205	0.98705
2386.64990	0.98712
2384.59775	0.98713
2382.54561	0.98721
2380.49346	0.98734
2378.44131	0.98740
2376.38916	0.98726
2374.33701	0.98701
2372.28486	0.98693
2370.23271	0.98722
2368.18056	0.98759
2366.12841	0.98758
2364.07626	0.98754
2362.02411	0.98782
2359.97196	0.98826
2357.91981	0.98863
2355.86766	0.98853
2353.81551	0.98785
2351.76336	0.98715
2349.71121	0.98686
2347.65906	0.98675
2345.60691	0.98675
2343.55476	0.98711
2341.50261	0.98737
2339.45047	0.98726
2337.39832	0.98753
2335.34617	0.98827
2333.29402	0.98896
2331.24187	0.98916
2329.18972	0.98884
2327.13757	0.98868
2325.08542	0.98881
2323.03327	0.98902
2320.98112	0.98932
2318.92897	0.98936
2316.87682	0.98929
2314.82467	0.98966
2312.77252	0.99026
2310.72037	0.99049
2308.66822	0.99026
2306.61607	0.98997
2304.56392	0.98977
2302.51177	0.98954
2300.45962	0.98946
2298.40747	0.98952
2296.35533	0.98961
2294.30318	0.98969
2292.25103	0.98976
2290.19888	0.98998
2288.14673	0.99024
2286.09458	0.99030
2284.04243	0.99033
2281.99028	0.99041
2279.93813	0.99046
2277.88598	0.99050
2275.83383	0.99052
2273.78168	0.99069
2271.72953	0.99106
2269.67738	0.99124
2267.62523	0.99130
2265.57308	0.99151
2263.52093	0.99161
2261.46878	0.99161
2259.41663	0.99177
2257.36448	0.99205
2255.31233	0.99211
2253.26018	0.99213
2251.20804	0.99263
2249.15589	0.99328
2247.10374	0.99343
2245.05159	0.99304
2242.99944	0.99261
2240.94729	0.99256
2238.89514	0.99294
2236.84299	0.99309
2234.79084	0.99242
2232.73869	0.99181
2230.68654	0.99225
2228.63439	0.99313
2226.58224	0.99309
2224.53009	0.99238
2222.47794	0.99231
2220.42579	0.99286
2218.37364	0.99371
2216.32149	0.99422
2214.26934	0.99374
2212.21719	0.99325
2210.16504	0.99344
2208.11290	0.99385
2206.06075	0.99419
2204.00860	0.99417
2201.95645	0.99381
2199.90430	0.99386
2197.85215	0.99430
2195.80000	0.99437
2193.74785	0.99418
2191.69570	0.99403
2189.64355	0.99405
2187.59140	0.99432
2185.53925	0.99467
2183.48710	0.99504
2181.43495	0.99508
2179.38280	0.99487
2177.33065	0.99508
2175.27850	0.99559
2173.22635	0.99567
2171.17420	0.99538
2169.12205	0.99566
2167.06990	0.99676
2165.01776	0.99806
2162.96561	0.99868
2160.91346	0.99884
2158.86131	0.99913
2156.80916	0.99852
2154.75701	0.99679
2152.70486	0.99554
2150.65271	0.99544
2148.60056	0.99557
2146.54841	0.99525
2144.49626	0.99487
2142.44411	0.99465
2140.39196	0.99466
2138.33981	0.99505
2136.28766	0.99504
2134.23551	0.99418
2132.18336	0.99376
2130.13121	0.99449
2128.07906	0.99516
2126.02691	0.99468
2123.97476	0.99360
2121.92262	0.99313
2119.87047	0.99350
2117.81832	0.99396
2115.76617	0.99402
2113.71402	0.99408
2111.66187	0.99461
2109.60972	0.99511
2107.55757	0.99479
2105.50542	0.99387
2103.45327	0.99356
2101.40112	0.99427
2099.34897	0.99501
2097.29682	0.99516
2095.24467	0.99527
2093.19252	0.99547
2091.14037	0.99527
2089.08822	0.99526
2087.03607	0.99534
2084.98392	0.99460
2082.93177	0.99397
2080.87962	0.99470
2078.82747	0.99597
2076.77533	0.99609
2074.72318	0.99530
2072.67103	0.99506
2070.61888	0.99558
2068.56673	0.99596
2066.51458	0.99553
2064.46243	0.99444
2062.41028	0.99346
2060.35813	0.99336
2058.30598	0.99422
2056.25383	0.99472
2054.20168	0.99398
2052.14953	0.99320
2050.09738	0.99381
2048.04523	0.99527
2045.99308	0.99590
2043.94093	0.99538
2041.88878	0.99432
2039.83663	0.99419
2037.78448	0.99528
2035.73233	0.99542
2033.68019	0.99525
2031.62804	0.99647
2029.57589	0.99760
2027.52374	0.99758
2025.47159	0.99700
2023.41944	0.99631
2021.36729	0.99572
2019.31514	0.99534
2017.26299	0.99561
2015.21084	0.99658
2013.15869	0.99742
2011.10654	0.99783
2009.05439	0.99794
2007.00224	0.99812
2004.95009	0.99882
2002.89794	0.99917
2000.84579	0.99855
1998.79364	0.99736
1996.74149	0.99646
1994.68934	0.99645
1992.63719	0.99689
1990.58505	0.99760
1988.53290	0.99823
1986.48075	0.99780
1984.42860	0.99719
1982.37645	0.99770
1980.32430	0.99805
1978.27215	0.99744
1976.22000	0.99724
1974.16785	0.99743
1972.11570	0.99737
1970.06355	0.99770
1968.01140	0.99829
1965.95925	0.99853
1963.90710	0.99898
1961.85495	0.99966
1959.80280	0.99925
1957.75065	0.99783
1955.69850	0.99724
1953.64635	0.99776
1951.59420	0.99784
1949.54205	0.99708
1947.48990	0.99650
1945.43776	0.99637
1943.38561	0.99614
1941.33346	0.99595
1939.28131	0.99574
1937.22916	0.99501
1935.17701	0.99452
1933.12486	0.99482
1931.07271	0.99493
1929.02056	0.99467
1926.96841	0.99486
1924.91626	0.99512
1922.86411	0.99502
1920.81196	0.99525
1918.75981	0.99585
1916.70766	0.99634
1914.65551	0.99656
1912.60336	0.99642
1910.55121	0.99629
1908.49906	0.99662
1906.44691	0.99701
1904.39476	0.99719
1902.34262	0.99725
1900.29047	0.99725
1898.23832	0.99737
1896.18617	0.99760
1894.13402	0.99791
1892.08187	0.99813
1890.02972	0.99823
1887.97757	0.99819
1885.92542	0.99780
1883.87327	0.99724
1881.82112	0.99681
1879.76897	0.99667
1877.71682	0.99679
1875.66467	0.99696
1873.61252	0.99711
1871.56037	0.99759
1869.50822	0.99822
1867.45607	0.99808
1865.40392	0.99755
1863.35177	0.99742
1861.29962	0.99747
1859.24748	0.99758
1857.19533	0.99789
1855.14318	0.99792
1853.09103	0.99761
1851.03888	0.99765
1848.98673	0.99776
1846.93458	0.99756
1844.88243	0.99744
1842.83028	0.99732
1840.77813	0.99726
1838.72598	0.99754
1836.67383	0.99775
1834.62168	0.99780
1832.56953	0.99797
1830.51738	0.99798
1828.46523	0.99769
1826.41308	0.99755
1824.36093	0.99764
1822.30878	0.99787
1820.25663	0.99802
1818.20448	0.99809
1816.15233	0.99822
1814.10019	0.99830
1812.04804	0.99846
1809.99589	0.99882
1807.94374	0.99894
1805.89159	0.99875
1803.83944	0.99867
1801.78729	0.99882
1799.73514	0.99891
1797.68299	0.99880
1795.63084	0.99873
1793.57869	0.99887
1791.52654	0.99881
1789.47439	0.99852
1787.42224	0.99849
1785.37009	0.99861
1783.31794	0.99870
1781.26579	0.99875
1779.21364	0.99880
1777.16149	0.99888
1775.10934	0.99885
1773.05719	0.99869
1771.00505	0.99845
1768.95290	0.99822
1766.90075	0.99818
1764.84860	0.99827
1762.79645	0.99829
1760.74430	0.99811
1758.69215	0.99797
1756.64000	0.99789
1754.58785	0.99789
1752.53570	0.99810
1750.48355	0.99835
1748.43140	0.99838
1746.37925	0.99833
1744.32710	0.99830
1742.27495	0.99834
1740.22280	0.99825
1738.17065	0.99798
1736.11850	0.99817
1734.06635	0.99882
1732.01420	0.99888
1729.96205	0.99856
1727.90991	0.99842
1725.85776	0.99855
1723.80561	0.99873
1721.75346	0.99881
1719.70131	0.99909
1717.64916	0.99924
1715.59701	0.99835
1713.54486	0.99704
1711.49271	0.99622
1709.44056	0.99597
1707.38841	0.99608
1705.33626	0.99622
1703.28411	0.99644
1701.23196	0.99696
1699.17981	0.99717
1697.12766	0.99649
1695.07551	0.99555
1693.02336	0.99522
1690.97121	0.99539
1688.91906	0.99563
1686.86691	0.99599
1684.81476	0.99614
1682.76262	0.99515
1680.71047	0.99425
1678.65832	0.99390
1676.60617	0.99376
1674.55402	0.99361
1672.50187	0.99351
1670.44972	0.99349
1668.39757	0.99319
1666.34542	0.99298
1664.29327	0.99316
1662.24112	0.99327
1660.18897	0.99310
1658.13682	0.99330
1656.08467	0.99399
1654.03252	0.99476
1651.98037	0.99483
1649.92822	0.99483
1647.87607	0.99519
1645.82392	0.99531
1643.77177	0.99523
1641.71962	0.99543
1639.66748	0.99592
1637.61533	0.99661
1635.56318	0.99703
1633.51103	0.99671
1631.45888	0.99658
1629.40673	0.99690
1627.35458	0.99737
1625.30243	0.99792
1623.25028	0.99832
1621.19813	0.99832
1619.14598	0.99852
1617.09383	0.99889
1615.04168	0.99883
1612.98953	0.99881
1610.93738	0.99905
1608.88523	0.99920
1606.83308	0.99916
1604.78093	0.99923
1602.72878	0.99940
1600.67663	0.99941
1598.62448	0.99933
1596.57234	0.99930
1594.52019	0.99921
1592.46804	0.99897
1590.41589	0.99887
1588.36374	0.99887
1586.31159	0.99874
1584.25944	0.99861
1582.20729	0.99863
1580.15514	0.99880
1578.10299	0.99924
1576.05084	0.99947
1573.99869	0.99898
1571.94654	0.99870
1569.89439	0.99868
1567.84224	0.99841
1565.79009	0.99810
1563.73794	0.99808
1561.68579	0.99853
1559.63364	0.99928
1557.58149	0.99869
1555.52934	0.99765
1553.47719	0.99701
1551.42505	0.99653
1549.37290	0.99612
1547.32075	0.99586
1545.26860	0.99602
1543.21645	0.99655
1541.16430	0.99703
1539.11215	0.99582
1537.06000	0.99449
1535.00785	0.99409
1532.95570	0.99353
1530.90355	0.99247
1528.85140	0.99168
1526.79925	0.99110
1524.74710	0.99063
1522.69495	0.99030
1520.64280	0.98926
1518.59065	0.98776
1516.53850	0.98604
1514.48635	0.98415
1512.43420	0.98264
1510.38205	0.98181
1508.32991	0.98089
1506.27776	0.97732
1504.22561	0.97335
1502.17346	0.97087
1500.12131	0.96815
1498.06916	0.96372
1496.01701	0.95713
1493.96486	0.95064
1491.91271	0.94396
1489.86056	0.93311
1487.80841	0.91849
1485.75626	0.90492
1483.70411	0.89293
1481.65196	0.88177
1479.59981	0.87267
1477.54766	0.86679
1475.49551	0.86341
1473.44336	0.86232
1471.39121	0.86336
1469.33906	0.86580
1467.28691	0.86924
1465.23477	0.87311
1463.18262	0.87533
1461.13047	0.87552
1459.07832	0.87424
1457.02617	0.86972
1454.97402	0.86386
1452.92187	0.85972
1450.86972	0.85580
1448.81757	0.85095
1446.76542	0.84508
1444.71327	0.83941
1442.66112	0.83424
1440.60897	0.82986
1438.55682	0.82702
1436.50467	0.82522
1434.45252	0.82388
1432.40037	0.82237
1430.34822	0.81923
1428.29607	0.81419
1426.24392	0.80887
1424.19177	0.80405
1422.13962	0.80091
1420.08748	0.80050
1418.03533	0.80253
1415.98318	0.80561
1413.93103	0.80914
1411.87888	0.81339
1409.82673	0.81817
1407.77458	0.82306
1405.72243	0.82821
1403.67028	0.83348
1401.61813	0.83824
1399.56598	0.84268
1397.51383	0.84632
1395.46168	0.84832
1393.40953	0.84848
1391.35738	0.84733
1389.30523	0.84547
1387.25308	0.84271
1385.20093	0.83964
1383.14878	0.83720
1381.09663	0.83514
1379.04448	0.83306
1376.99234	0.83108
1374.94019	0.82947
1372.88804	0.82873
1370.83589	0.82955
1368.78374	0.83165
1366.73159	0.83411
1364.67944	0.83623
1362.62729	0.83743
1360.57514	0.83713
1358.52299	0.83598
1356.47084	0.83483
1354.41869	0.83425
1352.36654	0.83480
1350.31439	0.83659
1348.26224	0.83913
1346.21009	0.84172
1344.15794	0.84417
1342.10579	0.84660
1340.05364	0.84916
1338.00149	0.85161
1335.94934	0.85379
1333.89720	0.85604
1331.84505	0.85846
1329.79290	0.86092
1327.74075	0.86342
1325.68860	0.86608
1323.63645	0.86864
1321.58430	0.87080
1319.53215	0.87272
1317.48000	0.87476
1315.42785	0.87733
1313.37570	0.88044
1311.32355	0.88381
1309.27140	0.88734
1307.21925	0.89105
1305.16710	0.89470
1303.11495	0.89782
1301.06280	0.89998
1299.01065	0.90107
1296.95850	0.90123
1294.90635	0.90092
1292.85420	0.90082
1290.80205	0.90135
1288.74991	0.90291
1286.69776	0.90581
1284.64561	0.91004
1282.59346	0.91537
1280.54131	0.92143
1278.48916	0.92766
1276.43701	0.93352
1274.38486	0.93863
1272.33271	0.94287
1270.28056	0.94639
1268.22841	0.94917
1266.17626	0.95121
1264.12411	0.95260
1262.07196	0.95335
1260.01981	0.95357
1257.96766	0.95339
1255.91551	0.95290
1253.86336	0.95217
1251.81121	0.95112
1249.75906	0.94966
1247.70691	0.94785
1245.65477	0.94556
1243.60262	0.94268
1241.55047	0.93951
1239.49832	0.93660
1237.44617	0.93420
1235.39402	0.93243
1233.34187	0.93143
1231.28972	0.93125
1229.23757	0.93184
1227.18542	0.93314
1225.13327	0.93495
1223.08112	0.93684
1221.02897	0.93866
1218.97682	0.94022
1216.92467	0.94139
1214.87252	0.94244
1212.82037	0.94342
1210.76822	0.94401
1208.71607	0.94394
1206.66392	0.94330
1204.61177	0.94222
1202.55963	0.94059
1200.50748	0.93851
1198.45533	0.93621
1196.40318	0.93375
1194.35103	0.93123
1192.29888	0.92886
1190.24673	0.92694
1188.19458	0.92563
1186.14243	0.92512
1184.09028	0.92575
1182.03813	0.92761
1179.98598	0.93053
1177.93383	0.93451
1175.88168	0.93961
1173.82953	0.94550
1171.77738	0.95167
1169.72523	0.95799
1167.67308	0.96453
1165.62093	0.97094
1163.56878	0.97680
1161.51663	0.98205
1159.46448	0.98661
1157.41234	0.99036
1155.36019	0.99330
1153.30804	0.99559
1151.25589	0.99744
1149.20374	0.99880
1147.15159	0.99939
1145.09944	0.99948
1143.04729	0.99922
1140.99514	0.99845
1138.94299	0.99690
1136.89084	0.99449
1134.83869	0.99089
1132.78654	0.98565
1130.73439	0.97875
1128.68224	0.97039
1126.63009	0.96110
1124.57794	0.95165
1122.52579	0.94255
1120.47364	0.93451
1118.42149	0.92803
1116.36934	0.92273
1114.31720	0.91804
1112.26505	0.91348
1110.21290	0.90844
1108.16075	0.90223
1106.10860	0.89459
1104.05645	0.88566
1102.00430	0.87569
1099.95215	0.86517
1097.90000	0.85507
1095.84785	0.84605
1093.79570	0.83784
1091.74355	0.82917
1089.69140	0.81802
1087.63925	0.80252
1085.58710	0.78136
1083.53495	0.75391
1081.48280	0.72100
1079.43065	0.68450
1077.37850	0.64634
1075.32635	0.60796
1073.27420	0.56982
1071.22206	0.53168
1069.16991	0.49331
1067.11776	0.45506
1065.06561	0.41863
1063.01346	0.38612
1060.96131	0.35929
1058.90916	0.33985
1056.85701	0.32906
1054.80486	0.32687
1052.75271	0.33183
1050.70056	0.34196
1048.64841	0.35532
1046.59626	0.36966
1044.54411	0.38216
1042.49196	0.39003
1040.43981	0.39192
1038.38766	0.38901
1036.33551	0.38456
1034.28336	0.38274
1032.23121	0.38731
1030.17906	0.40098
1028.12692	0.42521
1026.07477	0.45959
1024.02262	0.50183
1021.97047	0.54893
1019.91832	0.59815
1017.86617	0.64710
1015.81402	0.69395
1013.76187	0.73756
1011.70972	0.77683
1009.65757	0.81029
1007.60542	0.83672
1005.55327	0.85513
1003.50112	0.86473
1001.44897	0.86506
999.39682	0.85545
997.34467	0.83506
995.29252	0.80386
993.24037	0.76373
991.18822	0.71906
989.13607	0.67587
987.08392	0.64058
985.03177	0.61887
982.97963	0.61469
980.92748	0.62943
978.87533	0.66128
976.82318	0.70545
974.77103	0.75549
972.71888	0.80450
970.66673	0.84712
968.61458	0.88075
966.56243	0.90520
964.51028	0.92179
962.45813	0.93210
960.40598	0.93750
958.35383	0.93892
956.30168	0.93597
954.24953	0.92713
952.19738	0.91053
950.14523	0.88520
948.09308	0.85277
946.04093	0.81762
943.98878	0.78563
941.93663	0.76222
939.88449	0.75032
937.83234	0.74966
935.78019	0.75646
933.72804	0.76447
931.67589	0.76761
929.62374	0.76245
927.57159	0.74894
925.51944	0.73027
923.46729	0.71185
921.41514	0.69944
919.36299	0.69753
917.31084	0.70817
915.25869	0.73078
913.20654	0.76283
911.15439	0.80041
909.10224	0.83907
907.05009	0.87520
904.99794	0.90651
902.94579	0.93184
900.89364	0.95154
898.84149	0.96655
896.78935	0.97744
894.73720	0.98518
892.68505	0.99094
890.63290	0.99520
888.58075	0.99808
886.52860	0.99945
884.47645	0.99934
882.42430	0.99753
880.37215	0.99413
878.32000	0.98920
876.26785	0.98330
874.21570	0.97737
872.16355	0.97213
870.11140	0.96858
868.05925	0.96811
866.00710	0.97149
863.95495	0.97792
861.90280	0.98536
859.85065	0.99187
857.79850	0.99630
855.74635	0.99821
853.69420	0.99821
851.64206	0.99743
849.58991	0.99652
847.53776	0.99613
845.48561	0.99668
843.43346	0.99771
841.38131	0.99863
839.32916	0.99946
837.27701	1.00000
835.22486	0.99974
833.17271	0.99843
831.12056	0.99605
829.06841	0.99247
827.01626	0.98806
824.96411	0.98353
822.91196	0.97857
820.85981	0.97328
818.80766	0.96856
816.75551	0.96447
814.70336	0.96081
812.65121	0.95789
810.59906	0.95580
808.54692	0.95369
806.49477	0.95054
804.44262	0.94636
802.39047	0.94184
800.33832	0.93728
798.28617	0.93247
796.23402	0.92730
794.18187	0.92145
792.12972	0.91492
790.07757	0.90853
788.02542	0.90315
785.97327	0.89859
783.92112	0.89393
781.86897	0.88999
779.81682	0.88850
777.76467	0.88936
775.71252	0.89177
773.66037	0.89514
771.60822	0.89839
769.55607	0.90076
767.50392	0.90213
765.45178	0.90233
763.39963	0.90108
761.34748	0.89902
759.29533	0.89712
757.24318	0.89565
755.19103	0.89443
753.13888	0.89265
751.08673	0.89001
749.03458	0.88733
746.98243	0.88492
744.93028	0.88226
742.87813	0.87915
740.82598	0.87595
738.77383	0.87296
736.72168	0.87016
734.66953	0.86704
732.61738	0.86351
730.56523	0.86009
728.51308	0.85679
726.46093	0.85312
724.40878	0.84932
722.35663	0.84587
720.30449	0.84242
718.25234	0.83883
716.20019	0.83547
714.14804	0.83235
712.09589	0.82899
710.04374	0.82523
707.99159	0.82121
705.93944	0.81723
703.88729	0.81383
701.83514	0.81109
699.78299	0.80825
697.73084	0.80464
695.67869	0.80059
693.62654	0.79700
691.57439	0.79428
689.52224	0.79210
687.47009	0.78972
685.41794	0.78679
683.36579	0.78364
681.31364	0.78032
679.26149	0.77660
677.20935	0.77295
675.15720	0.77034
673.10505	0.76867
671.05290	0.76741
669.00075	0.76539
666.94860	0.76236
664.89645	0.76064
662.84430	0.75879
660.79215	0.75585
658.74000	0.75343
656.68785	0.75173
654.63570	0.74961
652.58355	0.74765
650.53140	0.74634
648.47925	0.74471
646.42710	0.74282
644.37495	0.74132
642.32280	0.74038
640.27065	0.73967
638.21850	0.73852
636.16635	0.73774
634.11421	0.73796
632.06206	0.73754
630.00991	0.73584
627.95776	0.73450
625.90561	0.73440
623.85346	0.73431
621.80131	0.73392
619.74916	0.73426
617.69701	0.73530
615.64486	0.73673
613.59271	0.73837
611.54056	0.73978
609.48841	0.74079
607.43626	0.74172
605.38411	0.74270
603.33196	0.74369
601.27981	0.74511
599.22766	0.74687
597.17551	0.74822
595.12336	0.74979
593.07121	0.75231
591.01906	0.75450
588.96692	0.75595
586.91477	0.75744
584.86262	0.75910
582.81047	0.76136
580.75832	0.76421
578.70617	0.76715
576.65402	0.77006
574.60187	0.77274
572.54972	0.77541
570.49757	0.77863
568.44542	0.78169
566.39327	0.78432
564.34112	0.78838
562.28897	0.79361
560.23682	0.79745
558.18467	0.79999
556.13252	0.80249
554.08037	0.80533
552.02822	0.80893
549.97607	0.81236
547.92392	0.81352
545.87178	0.81291
543.81963	0.81231
541.76748	0.81060
539.71533	0.80555
537.66318	0.79625
535.61103	0.78235
533.55888	0.76434
531.50673	0.74501
529.45458	0.72749
527.40243	0.71454
525.35028	0.71017
523.29813	0.71614
521.24598	0.72992
519.19383	0.74888
517.14168	0.76911
515.08953	0.78626
513.03738	0.80026
510.98523	0.81247
508.93308	0.82290
506.88093	0.83251
504.82878	0.84203
502.77664	0.85103
500.72449	0.85898
498.67234	0.86566
496.62019	0.87078
494.56804	0.87445
492.51589	0.87744
490.46374	0.88061
488.41159	0.88384
486.35944	0.88578
484.30729	0.88667
482.25514	0.88838
480.20299	0.89163
478.15084	0.89647
476.09869	0.90335
474.04654	0.91273
471.99439	0.92362
469.94224	0.93265
467.89009	0.93949
465.83794	0.94600
463.78579	0.95241
461.73364	0.95827
459.68149	0.96315
457.62935	0.96605
455.57720	0.96678
453.52505	0.96777
451.47290	0.96866
449.42075	0.96637
447.36860	0.96267
445.31645	0.96087
443.26430	0.95862
441.21215	0.95469
439.16000	0.95131
437.10785	0.94935
435.05570	0.94847
433.00355	0.94735
430.95140	0.94699
428.89925	0.94945
426.84710	0.95471
424.79495	0.95957
422.74280	0.96100
420.69065	0.96231
418.63850	0.96586
416.58635	0.96661
414.53421	0.96602
412.48206	0.96880
410.42991	0.97515
408.37776	0.98014
406.32561	0.98329
404.27346	0.98895
402.22131	0.99391
400.16916	0.99612
398.11701	1.00000
