3997.58729	1.00012
3995.53514	0.99993
3993.48299	0.99985
3991.43084	0.99976
3989.37869	0.99969
3987.32654	0.99985
3985.27439	0.99987
3983.22224	0.99952
3981.17009	0.99932
3979.11794	0.99945
3977.06579	0.99951
3975.01364	0.99936
3972.96149	0.99922
3970.90934	0.99926
3968.85719	0.99922
3966.80504	0.99911
3964.75289	0.99931
3962.70074	0.99970
3960.64859	1.00000
3958.59645	0.99992
3956.54430	0.99946
3954.49215	0.99908
3952.44000	0.99903
3950.38785	0.99918
3948.33570	0.99936
3946.28355	0.99934
3944.23140	0.99909
3942.17925	0.99884
3940.12710	0.99900
3938.07495	0.99937
3936.02280	0.99955
3933.97065	0.99968
3931.91850	0.99978
3929.86635	0.99971
3927.81420	0.99961
3925.76205	0.99960
3923.70990	0.99956
3921.65775	0.99955
3919.60560	0.99983
3917.55345	1.00000
3915.50131	0.99957
3913.44916	0.99916
3911.39701	0.99928
3909.34486	0.99968
3907.29271	1.00002
3905.24056	1.00000
3903.18841	0.99967
3901.13626	0.99951
3899.08411	0.99964
3897.03196	0.99979
3894.97981	0.99983
3892.92766	0.99986
3890.87551	0.99969
3888.82336	0.99945
3886.77121	0.99948
3884.71906	0.99940
3882.66691	0.99925
3880.61476	0.99930
3878.56261	0.99914
3876.51046	0.99903
3874.45831	0.99934
3872.40616	0.99970
3870.35402	0.99984
3868.30187	0.99995
3866.24972	1.00006
3864.19757	0.99970
3862.14542	0.99919
3860.09327	0.99921
3858.04112	0.99945
3855.98897	0.99961
3853.93682	0.99992
3851.88467	1.00000
3849.83252	0.99944
3847.78037	0.99898
3845.72822	0.99896
3843.67607	0.99937
3841.62392	0.99981
3839.57177	0.99974
3837.51962	0.99921
3835.46747	0.99913
3833.41532	0.99955
3831.36317	0.99976
3829.31102	0.99956
3827.25888	0.99918
3825.20673	0.99902
3823.15458	0.99942
3821.10243	0.99992
3819.05028	0.99990
3816.99813	0.99978
3814.94598	0.99940
3812.89383	0.99869
3810.84168	0.99824
3808.78953	0.99853
3806.73738	0.99939
3804.68523	0.99984
3802.63308	0.99958
3800.58093	0.99891
3798.52878	0.99858
3796.47663	0.99850
3794.42448	0.99841
3792.37233	0.99834
3790.32018	0.99830
3788.26803	0.99834
3786.21588	0.99838
3784.16374	0.99841
3782.11159	0.99851
3780.05944	0.99859
3778.00729	0.99845
3775.95514	0.99822
3773.90299	0.99801
3771.85084	0.99784
3769.79869	0.99778
3767.74654	0.99785
3765.69439	0.99789
3763.64224	0.99771
3761.59009	0.99779
3759.53794	0.99823
3757.48579	0.99838
3755.43364	0.99841
3753.38149	0.99885
3751.32934	0.99961
3749.27719	1.00003
3747.22504	1.00011
3745.17289	0.99992
3743.12074	0.99937
3741.06859	0.99893
3739.01645	0.99878
3736.96430	0.99924
3734.91215	1.00000
3732.86000	0.99971
3730.80785	0.99862
3728.75570	0.99792
3726.70355	0.99798
3724.65140	0.99824
3722.59925	0.99822
3720.54710	0.99819
3718.49495	0.99812
3716.44280	0.99802
3714.39065	0.99822
3712.33850	0.99872
3710.28635	0.99871
3708.23420	0.99796
3706.18205	0.99735
3704.12990	0.99733
3702.07775	0.99761
3700.02560	0.99780
3697.97345	0.99765
3695.92131	0.99727
3693.86916	0.99737
3691.81701	0.99833
3689.76486	0.99917
3687.71271	0.99868
3685.66056	0.99762
3683.60841	0.99696
3681.55626	0.99694
3679.50411	0.99707
3677.45196	0.99689
3675.39981	0.99661
3673.34766	0.99663
3671.29551	0.99703
3669.24336	0.99716
3667.19121	0.99665
3665.13906	0.99617
3663.08691	0.99577
3661.03476	0.99526
3658.98261	0.99487
3656.93046	0.99477
3654.87831	0.99502
3652.82617	0.99566
3650.77402	0.99647
3648.72187	0.99632
3646.66972	0.99502
3644.61757	0.99406
3642.56542	0.99349
3640.51327	0.99298
3638.46112	0.99251
3636.40897	0.99219
3634.35682	0.99190
3632.30467	0.99167
3630.25252	0.99182
3628.20037	0.99146
3626.14822	0.99019
3624.09607	0.98923
3622.04392	0.98897
3619.99177	0.98893
3617.93962	0.98815
3615.88747	0.98715
3613.83532	0.98656
3611.78317	0.98610
3609.73102	0.98555
3607.67888	0.98463
3605.62673	0.98332
3603.57458	0.98224
3601.52243	0.98160
3599.47028	0.98107
3597.41813	0.98040
3595.36598	0.97939
3593.31383	0.97791
3591.26168	0.97671
3589.20953	0.97610
3587.15738	0.97514
3585.10523	0.97368
3583.05308	0.97246
3581.00093	0.97116
3578.94878	0.96976
3576.89663	0.96864
3574.84448	0.96742
3572.79233	0.96588
3570.74018	0.96453
3568.68803	0.96346
3566.63588	0.96198
3564.58374	0.96000
3562.53159	0.95811
3560.47944	0.95628
3558.42729	0.95441
3556.37514	0.95276
3554.32299	0.95141
3552.27084	0.94972
3550.21869	0.94752
3548.16654	0.94530
3546.11439	0.94337
3544.06224	0.94161
3542.01009	0.93960
3539.95794	0.93719
3537.90579	0.93453
3535.85364	0.93188
3533.80149	0.92940
3531.74934	0.92710
3529.69719	0.92494
3527.64504	0.92261
3525.59289	0.91990
3523.54074	0.91709
3521.48860	0.91435
3519.43645	0.91164
3517.38430	0.90897
3515.33215	0.90644
3513.28000	0.90380
3511.22785	0.90080
3509.17570	0.89759
3507.12355	0.89443
3505.07140	0.89138
3503.01925	0.88824
3500.96710	0.88518
3498.91495	0.88231
3496.86280	0.87928
3494.81065	0.87593
3492.75850	0.87261
3490.70635	0.86944
3488.65420	0.86625
3486.60205	0.86308
3484.54990	0.85999
3482.49775	0.85678
3480.44560	0.85338
3478.39345	0.84991
3476.34131	0.84644
3474.28916	0.84310
3472.23701	0.83989
3470.18486	0.83681
3468.13271	0.83361
3466.08056	0.83006
3464.02841	0.82649
3461.97626	0.82314
3459.92411	0.81984
3457.87196	0.81653
3455.81981	0.81320
3453.76766	0.80972
3451.71551	0.80616
3449.66336	0.80273
3447.61121	0.79938
3445.55906	0.79597
3443.50691	0.79261
3441.45476	0.78918
3439.40261	0.78577
3437.35046	0.78234
3435.29831	0.77879
3433.24617	0.77560
3431.19402	0.77280
3429.14187	0.76971
3427.08972	0.76621
3425.03757	0.76290
3422.98542	0.75983
3420.93327	0.75651
3418.88112	0.75302
3416.82897	0.74984
3414.77682	0.74690
3412.72467	0.74388
3410.67252	0.74065
3408.62037	0.73739
3406.56822	0.73436
3404.51607	0.73154
3402.46392	0.72874
3400.41177	0.72570
3398.35962	0.72250
3396.30747	0.71949
3394.25532	0.71659
3392.20317	0.71352
3390.15103	0.71057
3388.09888	0.70777
3386.04673	0.70492
3383.99458	0.70211
3381.94243	0.69946
3379.89028	0.69685
3377.83813	0.69418
3375.78598	0.69145
3373.73383	0.68880
3371.68168	0.68636
3369.62953	0.68404
3367.57738	0.68169
3365.52523	0.67935
3363.47308	0.67721
3361.42093	0.67507
3359.36878	0.67265
3357.31663	0.67021
3355.26448	0.66816
3353.21233	0.66639
3351.16018	0.66455
3349.10803	0.66258
3347.05588	0.66072
3345.00374	0.65905
3342.95159	0.65743
3340.89944	0.65590
3338.84729	0.65448
3336.79514	0.65308
3334.74299	0.65170
3332.69084	0.65042
3330.63869	0.64927
3328.58654	0.64830
3326.53439	0.64742
3324.48224	0.64653
3322.43009	0.64572
3320.37794	0.64499
3318.32579	0.64431
3316.27364	0.64387
3314.22149	0.64363
3312.16934	0.64347
3310.11719	0.64349
3308.06504	0.64356
3306.01289	0.64345
3303.96074	0.64336
3301.90860	0.64343
3299.85645	0.64362
3297.80430	0.64394
3295.75215	0.64440
3293.70000	0.64484
3291.64785	0.64521
3289.59570	0.64560
3287.54355	0.64611
3285.49140	0.64674
3283.43925	0.64767
3281.38710	0.64889
3279.33495	0.65011
3277.28280	0.65123
3275.23065	0.65247
3273.17850	0.65398
3271.12635	0.65558
3269.07420	0.65707
3267.02205	0.65854
3264.96990	0.65999
3262.91775	0.66140
3260.86560	0.66296
3258.81346	0.66477
3256.76131	0.66677
3254.70916	0.66881
3252.65701	0.67074
3250.60486	0.67279
3248.55271	0.67514
3246.50056	0.67751
3244.44841	0.67981
3242.39626	0.68223
3240.34411	0.68464
3238.29196	0.68708
3236.23981	0.68981
3234.18766	0.69272
3232.13551	0.69551
3230.08336	0.69807
3228.03121	0.70070
3225.97906	0.70368
3223.92691	0.70692
3221.87476	0.71024
3219.82261	0.71343
3217.77046	0.71639
3215.71832	0.71923
3213.66617	0.72230
3211.61402	0.72567
3209.56187	0.72897
3207.50972	0.73214
3205.45757	0.73545
3203.40542	0.73893
3201.35327	0.74233
3199.30112	0.74566
3197.24897	0.74910
3195.19682	0.75270
3193.14467	0.75629
3191.09252	0.75969
3189.04037	0.76306
3186.98822	0.76656
3184.93607	0.77015
3182.88392	0.77390
3180.83177	0.77766
3178.77962	0.78112
3176.72747	0.78439
3174.67532	0.78773
3172.62317	0.79118
3170.57103	0.79467
3168.51888	0.79813
3166.46673	0.80150
3164.41458	0.80482
3162.36243	0.80814
3160.31028	0.81139
3158.25813	0.81457
3156.20598	0.81779
3154.15383	0.82105
3152.10168	0.82433
3150.04953	0.82752
3147.99738	0.83051
3145.94523	0.83345
3143.89308	0.83644
3141.84093	0.83938
3139.78878	0.84224
3137.73663	0.84512
3135.68448	0.84808
3133.63233	0.85092
3131.58018	0.85347
3129.52803	0.85599
3127.47589	0.85861
3125.42374	0.86113
3123.37159	0.86369
3121.31944	0.86638
3119.26729	0.86895
3117.21514	0.87132
3115.16299	0.87371
3113.11084	0.87609
3111.05869	0.87827
3109.00654	0.88044
3106.95439	0.88271
3104.90224	0.88486
3102.85009	0.88690
3100.79794	0.88894
3098.74579	0.89091
3096.69364	0.89284
3094.64149	0.89476
3092.58934	0.89652
3090.53719	0.89821
3088.48504	0.89997
3086.43289	0.90171
3084.38075	0.90341
3082.32860	0.90522
3080.27645	0.90705
3078.22430	0.90872
3076.17215	0.91014
3074.12000	0.91149
3072.06785	0.91307
3070.01570	0.91470
3067.96355	0.91609
3065.91140	0.91737
3063.85925	0.91872
3061.80710	0.91997
3059.75495	0.92103
3057.70280	0.92208
3055.65065	0.92318
3053.59850	0.92430
3051.54635	0.92544
3049.49420	0.92634
3047.44205	0.92713
3045.38990	0.92805
3043.33775	0.92896
3041.28560	0.92982
3039.23346	0.93069
3037.18131	0.93155
3035.12916	0.93240
3033.07701	0.93323
3031.02486	0.93390
3028.97271	0.93453
3026.92056	0.93521
3024.86841	0.93572
3022.81626	0.93601
3020.76411	0.93633
3018.71196	0.93685
3016.65981	0.93741
3014.60766	0.93767
3012.55551	0.93770
3010.50336	0.93781
3008.45121	0.93792
3006.39906	0.93771
3004.34691	0.93727
3002.29476	0.93678
3000.24261	0.93627
2998.19046	0.93563
2996.13832	0.93449
2994.08617	0.93279
2992.03402	0.93082
2989.98187	0.92840
2987.92972	0.92507
2985.87757	0.92082
2983.82542	0.91573
2981.77327	0.90953
2979.72112	0.90218
2977.66897	0.89381
2975.61682	0.88436
2973.56467	0.87377
2971.51252	0.86232
2969.46037	0.85052
2967.40822	0.83875
2965.35607	0.82722
2963.30392	0.81594
2961.25177	0.80483
2959.19962	0.79385
2957.14747	0.78296
2955.09532	0.77212
2953.04318	0.76141
2950.99103	0.75141
2948.93888	0.74295
2946.88673	0.73659
2944.83458	0.73247
2942.78243	0.73052
2940.73028	0.73042
2938.67813	0.73149
2936.62598	0.73305
2934.57383	0.73493
2932.52168	0.73727
2930.46953	0.74027
2928.41738	0.74400
2926.36523	0.74836
2924.31308	0.75329
2922.26093	0.75867
2920.20878	0.76415
2918.15663	0.76934
2916.10448	0.77401
2914.05233	0.77814
2912.00018	0.78184
2909.94803	0.78500
2907.89589	0.78737
2905.84374	0.78863
2903.79159	0.78848
2901.73944	0.78673
2899.68729	0.78332
2897.63514	0.77835
2895.58299	0.77190
2893.53084	0.76413
2891.47869	0.75550
2889.42654	0.74666
2887.37439	0.73815
2885.32224	0.73046
2883.27009	0.72403
2881.21794	0.71913
2879.16579	0.71587
2877.11364	0.71435
2875.06149	0.71448
2873.00934	0.71610
2870.95719	0.71922
2868.90504	0.72375
2866.85289	0.72940
2864.80075	0.73598
2862.74860	0.74335
2860.69645	0.75095
2858.64430	0.75841
2856.59215	0.76588
2854.54000	0.77348
2852.48785	0.78146
2850.43570	0.78988
2848.38355	0.79850
2846.33140	0.80714
2844.27925	0.81571
2842.22710	0.82388
2840.17495	0.83130
2838.12280	0.83794
2836.07065	0.84394
2834.01850	0.84934
2831.96635	0.85438
2829.91420	0.85914
2827.86205	0.86347
2825.80990	0.86746
2823.75775	0.87126
2821.70561	0.87501
2819.65346	0.87862
2817.60131	0.88190
2815.54916	0.88481
2813.49701	0.88736
2811.44486	0.88977
2809.39271	0.89224
2807.34056	0.89470
2805.28841	0.89711
2803.23626	0.89954
2801.18411	0.90196
2799.13196	0.90426
2797.07981	0.90660
2795.02766	0.90896
2792.97551	0.91122
2790.92336	0.91348
2788.87121	0.91578
2786.81906	0.91786
2784.76691	0.91967
2782.71476	0.92122
2780.66261	0.92261
2778.61046	0.92404
2776.55832	0.92539
2774.50617	0.92634
2772.45402	0.92701
2770.40187	0.92773
2768.34972	0.92858
2766.29757	0.92927
2764.24542	0.92969
2762.19327	0.93019
2760.14112	0.93081
2758.08897	0.93130
2756.03682	0.93162
2753.98467	0.93190
2751.93252	0.93238
2749.88037	0.93290
2747.82822	0.93318
2745.77607	0.93354
2743.72392	0.93418
2741.67177	0.93480
2739.61962	0.93538
2737.56747	0.93605
2735.51532	0.93678
2733.46318	0.93750
2731.41103	0.93809
2729.35888	0.93855
2727.30673	0.93903
2725.25458	0.93970
2723.20243	0.94055
2721.15028	0.94148
2719.09813	0.94242
2717.04598	0.94341
2714.99383	0.94464
2712.94168	0.94597
2710.88953	0.94714
2708.83738	0.94810
2706.78523	0.94895
2704.73308	0.94985
2702.68093	0.95066
2700.62878	0.95130
2698.57663	0.95189
2696.52448	0.95256
2694.47233	0.95333
2692.42018	0.95404
2690.36804	0.95458
2688.31589	0.95520
2686.26374	0.95608
2684.21159	0.95688
2682.15944	0.95727
2680.10729	0.95741
2678.05514	0.95770
2676.00299	0.95832
2673.95084	0.95904
2671.89869	0.95954
2669.84654	0.95983
2667.79439	0.96008
2665.74224	0.96040
2663.69009	0.96073
2661.63794	0.96105
2659.58579	0.96131
2657.53364	0.96154
2655.48149	0.96183
2653.42934	0.96214
2651.37719	0.96248
2649.32504	0.96280
2647.27289	0.96296
2645.22075	0.96317
2643.16860	0.96372
2641.11645	0.96438
2639.06430	0.96477
2637.01215	0.96498
2634.96000	0.96526
2632.90785	0.96548
2630.85570	0.96559
2628.80355	0.96598
2626.75140	0.96652
2624.69925	0.96695
2622.64710	0.96757
2620.59495	0.96833
2618.54280	0.96874
2616.49065	0.96876
2614.43850	0.96875
2612.38635	0.96903
2610.33420	0.96944
2608.28205	0.96976
2606.22990	0.97018
2604.17775	0.97067
2602.12561	0.97091
2600.07346	0.97111
2598.02131	0.97137
2595.96916	0.97161
2593.91701	0.97191
2591.86486	0.97214
2589.81271	0.97234
2587.76056	0.97281
2585.70841	0.97344
2583.65626	0.97385
2581.60411	0.97411
2579.55196	0.97445
2577.49981	0.97492
2575.44766	0.97562
2573.39551	0.97611
2571.34336	0.97600
2569.29121	0.97578
2567.23906	0.97577
2565.18691	0.97571
2563.13476	0.97566
2561.08261	0.97574
2559.03047	0.97588
2556.97832	0.97609
2554.92617	0.97635
2552.87402	0.97656
2550.82187	0.97669
2548.76972	0.97670
2546.71757	0.97660
2544.66542	0.97665
2542.61327	0.97683
2540.56112	0.97686
2538.50897	0.97691
2536.45682	0.97705
2534.40467	0.97715
2532.35252	0.97710
2530.30037	0.97688
2528.24822	0.97691
2526.19607	0.97719
2524.14392	0.97727
2522.09177	0.97738
2520.03962	0.97776
2517.98747	0.97818
2515.93532	0.97833
2513.88318	0.97816
2511.83103	0.97803
2509.77888	0.97801
2507.72673	0.97802
2505.67458	0.97809
2503.62243	0.97818
2501.57028	0.97845
2499.51813	0.97893
2497.46598	0.97942
2495.41383	0.97971
2493.36168	0.97976
2491.30953	0.97974
2489.25738	0.97998
2487.20523	0.98058
2485.15308	0.98121
2483.10093	0.98152
2481.04878	0.98154
2478.99663	0.98149
2476.94448	0.98158
2474.89233	0.98182
2472.84018	0.98205
2470.78804	0.98231
2468.73589	0.98263
2466.68374	0.98277
2464.63159	0.98274
2462.57944	0.98287
2460.52729	0.98330
2458.47514	0.98374
2456.42299	0.98400
2454.37084	0.98429
2452.31869	0.98458
2450.26654	0.98474
2448.21439	0.98502
2446.16224	0.98546
2444.11009	0.98574
2442.05794	0.98570
2440.00579	0.98562
2437.95364	0.98570
2435.90149	0.98574
2433.84934	0.98572
2431.79719	0.98586
2429.74504	0.98612
2427.69290	0.98625
2425.64075	0.98627
2423.58860	0.98638
2421.53645	0.98655
2419.48430	0.98666
2417.43215	0.98678
2415.38000	0.98684
2413.32785	0.98670
2411.27570	0.98655
2409.22355	0.98678
2407.17140	0.98713
2405.11925	0.98704
2403.06710	0.98682
2401.01495	0.98704
2398.96280	0.98738
2396.91065	0.98741
2394.85850	0.98732
2392.80635	0.98726
2390.75420	0.98727
2388.70205	0.98743
2386.64990	0.98757
2384.59775	0.98768
2382.54561	0.98792
2380.49346	0.98813
2378.44131	0.98819
2376.38916	0.98812
2374.33701	0.98780
2372.28486	0.98741
2370.23271	0.98759
2368.18056	0.98823
2366.12841	0.98860
2364.07626	0.98853
2362.02411	0.98811
2359.97196	0.98776
2357.91981	0.98803
2355.86766	0.98846
2353.81551	0.98831
2351.76336	0.98778
2349.71121	0.98750
2347.65906	0.98745
2345.60691	0.98743
2343.55476	0.98766
2341.50261	0.98807
2339.45047	0.98831
2337.39832	0.98849
2335.34617	0.98872
2333.29402	0.98890
2331.24187	0.98893
2329.18972	0.98882
2327.13757	0.98870
2325.08542	0.98875
2323.03327	0.98918
2320.98112	0.98956
2318.92897	0.98943
2316.87682	0.98936
2314.82467	0.98968
2312.77252	0.99007
2310.72037	0.99032
2308.66822	0.99018
2306.61607	0.98986
2304.56392	0.98983
2302.51177	0.98973
2300.45962	0.98942
2298.40747	0.98938
2296.35533	0.98955
2294.30318	0.98966
2292.25103	0.98996
2290.19888	0.99044
2288.14673	0.99061
2286.09458	0.99052
2284.04243	0.99066
2281.99028	0.99090
2279.93813	0.99101
2277.88598	0.99093
2275.83383	0.99065
2273.78168	0.99054
2271.72953	0.99107
2269.67738	0.99181
2267.62523	0.99217
2265.57308	0.99227
2263.52093	0.99221
2261.46878	0.99206
2259.41663	0.99217
2257.36448	0.99252
2255.31233	0.99244
2253.26018	0.99249
2251.20804	0.99309
2249.15589	0.99343
2247.10374	0.99331
2245.05159	0.99301
2242.99944	0.99281
2240.94729	0.99290
2238.89514	0.99338
2236.84299	0.99369
2234.79084	0.99318
2232.73869	0.99253
2230.68654	0.99277
2228.63439	0.99361
2226.58224	0.99366
2224.53009	0.99295
2222.47794	0.99277
2220.42579	0.99325
2218.37364	0.99387
2216.32149	0.99420
2214.26934	0.99422
2212.21719	0.99440
2210.16504	0.99468
2208.11290	0.99457
2206.06075	0.99427
2204.00860	0.99432
2201.95645	0.99458
2199.90430	0.99444
2197.85215	0.99431
2195.80000	0.99492
2193.74785	0.99566
2191.69570	0.99561
2189.64355	0.99583
2187.59140	0.99647
2185.53925	0.99623
2183.48710	0.99598
2181.43495	0.99606
2179.38280	0.99545
2177.33065	0.99455
2175.27850	0.99478
2173.22635	0.99568
2171.17420	0.99579
2169.12205	0.99581
2167.06990	0.99649
2165.01776	0.99716
2162.96561	0.99746
2160.91346	0.99831
2158.86131	0.99983
2156.80916	1.00000
2154.75701	0.99852
2152.70486	0.99713
2150.65271	0.99649
2148.60056	0.99606
2146.54841	0.99559
2144.49626	0.99552
2142.44411	0.99604
2140.39196	0.99624
2138.33981	0.99564
2136.28766	0.99474
2134.23551	0.99403
2132.18336	0.99399
2130.13121	0.99438
2128.07906	0.99439
2126.02691	0.99407
2123.97476	0.99398
2121.92262	0.99423
2119.87047	0.99450
2117.81832	0.99463
2115.76617	0.99480
2113.71402	0.99503
2111.66187	0.99514
2109.60972	0.99509
2107.55757	0.99490
2105.50542	0.99448
2103.45327	0.99414
2101.40112	0.99426
2099.34897	0.99447
2097.29682	0.99451
2095.24467	0.99469
2093.19252	0.99494
2091.14037	0.99512
2089.08822	0.99547
2087.03607	0.99562
2084.98392	0.99519
2082.93177	0.99500
2080.87962	0.99592
2078.82747	0.99717
2076.77533	0.99736
2074.72318	0.99685
2072.67103	0.99656
2070.61888	0.99629
2068.56673	0.99583
2066.51458	0.99524
2064.46243	0.99461
2062.41028	0.99431
2060.35813	0.99435
2058.30598	0.99467
2056.25383	0.99481
2054.20168	0.99437
2052.14953	0.99445
2050.09738	0.99575
2048.04523	0.99687
2045.99308	0.99637
2043.94093	0.99497
2041.88878	0.99440
2039.83663	0.99498
2037.78448	0.99578
2035.73233	0.99628
2033.68019	0.99711
2031.62804	0.99846
2029.57589	0.99911
2027.52374	0.99897
2025.47159	0.99902
2023.41944	0.99921
2021.36729	0.99954
2019.31514	0.99956
2017.26299	0.99882
2015.21084	0.99825
2013.15869	0.99786
2011.10654	0.99709
2009.05439	0.99680
2007.00224	0.99736
2004.95009	0.99820
2002.89794	0.99870
2000.84579	0.99860
1998.79364	0.99825
1996.74149	0.99745
1994.68934	0.99683
1992.63719	0.99751
1990.58505	0.99902
1988.53290	1.00000
1986.48075	0.99993
1984.42860	0.99951
1982.37645	0.99926
1980.32430	0.99897
1978.27215	0.99852
1976.22000	0.99780
1974.16785	0.99750
1972.11570	0.99802
1970.06355	0.99892
1968.01140	0.99992
1965.95925	1.00015
1963.90710	0.99968
1961.85495	0.99944
1959.80280	0.99876
1957.75065	0.99795
1955.69850	0.99835
1953.64635	0.99913
1951.59420	0.99923
1949.54205	0.99892
1947.48990	0.99869
1945.43776	0.99868
1943.38561	0.99835
1941.33346	0.99755
1939.28131	0.99706
1937.22916	0.99699
1935.17701	0.99705
1933.12486	0.99724
1931.07271	0.99748
1929.02056	0.99785
1926.96841	0.99824
1924.91626	0.99808
1922.86411	0.99748
1920.81196	0.99736
1918.75981	0.99778
1916.70766	0.99815
1914.65551	0.99838
1912.60336	0.99850
1910.55121	0.99864
1908.49906	0.99868
1906.44691	0.99848
1904.39476	0.99860
1902.34262	0.99900
1900.29047	0.99895
1898.23832	0.99869
1896.18617	0.99878
1894.13402	0.99910
1892.08187	0.99943
1890.02972	0.99985
1887.97757	1.00000
1885.92542	0.99963
1883.87327	0.99908
1881.82112	0.99880
1879.76897	0.99877
1877.71682	0.99882
1875.66467	0.99891
1873.61252	0.99885
1871.56037	0.99892
1869.50822	0.99934
1867.45607	0.99938
1865.40392	0.99908
1863.35177	0.99908
1861.29962	0.99928
1859.24748	0.99942
1857.19533	0.99945
1855.14318	0.99923
1853.09103	0.99891
1851.03888	0.99907
1848.98673	0.99975
1846.93458	1.00037
1844.88243	1.00053
1842.83028	1.00007
1840.77813	0.99947
1838.72598	0.99910
1836.67383	0.99899
1834.62168	0.99926
1832.56953	0.99976
1830.51738	0.99993
1828.46523	0.99965
1826.41308	0.99939
1824.36093	0.99923
1822.30878	0.99930
1820.25663	0.99953
1818.20448	0.99969
1816.15233	0.99983
1814.10019	0.99996
1812.04804	1.00012
1809.99589	1.00038
1807.94374	1.00050
1805.89159	1.00027
1803.83944	1.00010
1801.78729	1.00042
1799.73514	1.00073
1797.68299	1.00045
1795.63084	0.99999
1793.57869	0.99992
1791.52654	0.99997
1789.47439	0.99983
1787.42224	0.99971
1785.37009	0.99966
1783.31794	0.99982
1781.26579	0.99996
1779.21364	0.99995
1777.16149	1.00003
1775.10934	1.00021
1773.05719	1.00032
1771.00505	1.00023
1768.95290	0.99983
1766.90075	0.99944
1764.84860	0.99946
1762.79645	0.99966
1760.74430	0.99943
1758.69215	0.99910
1756.64000	0.99909
1754.58785	0.99911
1752.53570	0.99909
1750.48355	0.99917
1748.43140	0.99936
1746.37925	0.99951
1744.32710	0.99955
1742.27495	0.99950
1740.22280	0.99937
1738.17065	0.99918
1736.11850	0.99926
1734.06635	0.99960
1732.01420	0.99963
1729.96205	0.99949
1727.90991	0.99952
1725.85776	0.99981
1723.80561	1.00000
1721.75346	1.00003
1719.70131	1.00019
1717.64916	1.00020
1715.59701	0.99935
1713.54486	0.99836
1711.49271	0.99770
1709.44056	0.99730
1707.38841	0.99715
1705.33626	0.99717
1703.28411	0.99726
1701.23196	0.99737
1699.17981	0.99726
1697.12766	0.99670
1695.07551	0.99570
1693.02336	0.99507
1690.97121	0.99507
1688.91906	0.99525
1686.86691	0.99540
1684.81476	0.99515
1682.76262	0.99406
1680.71047	0.99325
1678.65832	0.99286
1676.60617	0.99255
1674.55402	0.99200
1672.50187	0.99148
1670.44972	0.99134
1668.39757	0.99115
1666.34542	0.99091
1664.29327	0.99089
1662.24112	0.99090
1660.18897	0.99081
1658.13682	0.99097
1656.08467	0.99159
1654.03252	0.99261
1651.98037	0.99296
1649.92822	0.99286
1647.87607	0.99321
1645.82392	0.99362
1643.77177	0.99382
1641.71962	0.99407
1639.66748	0.99451
1637.61533	0.99510
1635.56318	0.99564
1633.51103	0.99584
1631.45888	0.99604
1629.40673	0.99643
1627.35458	0.99697
1625.30243	0.99767
1623.25028	0.99819
1621.19813	0.99827
1619.14598	0.99849
1617.09383	0.99895
1615.04168	0.99907
1612.98953	0.99907
1610.93738	0.99933
1608.88523	0.99968
1606.83308	0.99968
1604.78093	0.99956
1602.72878	0.99976
1600.67663	0.99997
1598.62448	0.99999
1596.57234	1.00013
1594.52019	1.00030
1592.46804	1.00021
1590.41589	1.00009
1588.36374	1.00007
1586.31159	1.00005
1584.25944	1.00001
1582.20729	1.00001
1580.15514	1.00009
1578.10299	1.00043
1576.05084	1.00060
1573.99869	1.00021
1571.94654	1.00009
1569.89439	1.00009
1567.84224	0.99969
1565.79009	0.99925
1563.73794	0.99910
1561.68579	0.99934
1559.63364	1.00000
1557.58149	0.99987
1555.52934	0.99912
1553.47719	0.99863
1551.42505	0.99826
1549.37290	0.99797
1547.32075	0.99785
1545.26860	0.99806
1543.21645	0.99851
1541.16430	0.99900
1539.11215	0.99815
1537.06000	0.99702
1535.00785	0.99655
1532.95570	0.99616
1530.90355	0.99570
1528.85140	0.99545
1526.79925	0.99511
1524.74710	0.99467
1522.69495	0.99444
1520.64280	0.99368
1518.59065	0.99248
1516.53850	0.99111
1514.48635	0.98965
1512.43420	0.98842
1510.38205	0.98764
1508.32991	0.98671
1506.27776	0.98343
1504.22561	0.98007
1502.17346	0.97804
1500.12131	0.97561
1498.06916	0.97134
1496.01701	0.96448
1493.96486	0.95732
1491.91271	0.94994
1489.86056	0.93863
1487.80841	0.92454
1485.75626	0.91259
1483.70411	0.90250
1481.65196	0.89296
1479.59981	0.88491
1477.54766	0.87959
1475.49551	0.87653
1473.44336	0.87539
1471.39121	0.87590
1469.33906	0.87788
1467.28691	0.88128
1465.23477	0.88575
1463.18262	0.88915
1461.13047	0.89051
1459.07832	0.89042
1457.02617	0.88767
1454.97402	0.88333
1452.92187	0.87987
1450.86972	0.87627
1448.81757	0.87158
1446.76542	0.86551
1444.71327	0.85929
1442.66112	0.85367
1440.60897	0.84924
1438.55682	0.84673
1436.50467	0.84552
1434.45252	0.84459
1432.40037	0.84299
1430.34822	0.83953
1428.29607	0.83419
1426.24392	0.82877
1424.19177	0.82413
1422.13962	0.82139
1420.08748	0.82147
1418.03533	0.82390
1415.98318	0.82733
1413.93103	0.83118
1411.87888	0.83554
1409.82673	0.84020
1407.77458	0.84487
1405.72243	0.84966
1403.67028	0.85458
1401.61813	0.85899
1399.56598	0.86282
1397.51383	0.86567
1395.46168	0.86712
1393.40953	0.86708
1391.35738	0.86573
1389.30523	0.86320
1387.25308	0.85910
1385.20093	0.85449
1383.14878	0.85063
1381.09663	0.84719
1379.04448	0.84384
1376.99234	0.84071
1374.94019	0.83803
1372.88804	0.83651
1370.83589	0.83696
1368.78374	0.83921
1366.73159	0.84258
1364.67944	0.84639
1362.62729	0.85000
1360.57514	0.85214
1358.52299	0.85256
1356.47084	0.85212
1354.41869	0.85150
1352.36654	0.85157
1350.31439	0.85305
1348.26224	0.85602
1346.21009	0.85999
1344.15794	0.86429
1342.10579	0.86844
1340.05364	0.87224
1338.00149	0.87541
1335.94934	0.87799
1333.89720	0.88035
1331.84505	0.88253
1329.79290	0.88454
1327.74075	0.88649
1325.68860	0.88843
1323.63645	0.89020
1321.58430	0.89184
1319.53215	0.89366
1317.48000	0.89588
1315.42785	0.89845
1313.37570	0.90121
1311.32355	0.90401
1309.27140	0.90671
1307.21925	0.90922
1305.16710	0.91141
1303.11495	0.91309
1301.06280	0.91417
1299.01065	0.91459
1296.95850	0.91446
1294.90635	0.91430
1292.85420	0.91453
1290.80205	0.91549
1288.74991	0.91757
1286.69776	0.92085
1284.64561	0.92515
1282.59346	0.93014
1280.54131	0.93543
1278.48916	0.94041
1276.43701	0.94454
1274.38486	0.94770
1272.33271	0.94994
1270.28056	0.95129
1268.22841	0.95188
1266.17626	0.95187
1264.12411	0.95146
1262.07196	0.95073
1260.01981	0.94959
1257.96766	0.94803
1255.91551	0.94637
1253.86336	0.94485
1251.81121	0.94327
1249.75906	0.94159
1247.70691	0.93988
1245.65477	0.93792
1243.60262	0.93564
1241.55047	0.93327
1239.49832	0.93109
1237.44617	0.92946
1235.39402	0.92848
1233.34187	0.92808
1231.28972	0.92839
1229.23757	0.92928
1227.18542	0.93047
1225.13327	0.93170
1223.08112	0.93277
1221.02897	0.93358
1218.97682	0.93406
1216.92467	0.93429
1214.87252	0.93439
1212.82037	0.93424
1210.76822	0.93381
1208.71607	0.93330
1206.66392	0.93291
1204.61177	0.93251
1202.55963	0.93185
1200.50748	0.93108
1198.45533	0.93043
1196.40318	0.92995
1194.35103	0.92966
1192.29888	0.92984
1190.24673	0.93078
1188.19458	0.93233
1186.14243	0.93440
1184.09028	0.93716
1182.03813	0.94063
1179.98598	0.94461
1177.93383	0.94908
1175.88168	0.95426
1173.82953	0.96006
1171.77738	0.96603
1169.72523	0.97192
1167.67308	0.97772
1165.62093	0.98318
1163.56878	0.98794
1161.51663	0.99197
1159.46448	0.99534
1157.41234	0.99783
1155.36019	0.99930
1153.30804	1.00000
1151.25589	0.99988
1149.20374	0.99868
1147.15159	0.99648
1145.09944	0.99335
1143.04729	0.98919
1140.99514	0.98397
1138.94299	0.97745
1136.89084	0.96889
1134.83869	0.95748
1132.78654	0.94282
1130.73439	0.92492
1128.68224	0.90438
1126.63009	0.88258
1124.57794	0.86140
1122.52579	0.84230
1120.47364	0.82600
1118.42149	0.81310
1116.36934	0.80378
1114.31720	0.79747
1112.26505	0.79339
1110.21290	0.79066
1108.16075	0.78832
1106.10860	0.78541
1104.05645	0.78131
1102.00430	0.77628
1099.95215	0.77107
1097.90000	0.76633
1095.84785	0.76234
1093.79570	0.75916
1091.74355	0.75623
1089.69140	0.75193
1087.63925	0.74431
1085.58710	0.73197
1083.53495	0.71394
1081.48280	0.69011
1079.43065	0.66141
1077.37850	0.62948
1075.32635	0.59614
1073.27420	0.56223
1071.22206	0.52767
1069.16991	0.49289
1067.11776	0.45888
1065.06561	0.42715
1063.01346	0.39964
1060.96131	0.37788
1058.90916	0.36305
1056.85701	0.35581
1054.80486	0.35580
1052.75271	0.36157
1050.70056	0.37121
1048.64841	0.38304
1046.59626	0.39568
1044.54411	0.40713
1042.49196	0.41479
1040.43981	0.41728
1038.38766	0.41574
1036.33551	0.41310
1034.28336	0.41267
1032.23121	0.41766
1030.17906	0.43054
1028.12692	0.45239
1026.07477	0.48269
1024.02262	0.51952
1021.97047	0.56053
1019.91832	0.60359
1017.86617	0.64677
1015.81402	0.68823
1013.76187	0.72659
1011.70972	0.76088
1009.65757	0.79014
1007.60542	0.81339
1005.55327	0.82976
1003.50112	0.83859
1001.44897	0.83999
999.39682	0.83409
997.34467	0.82055
995.29252	0.79934
993.24037	0.77124
991.18822	0.73891
989.13607	0.70725
987.08392	0.68183
985.03177	0.66717
982.97963	0.66573
980.92748	0.67773
978.87533	0.70120
976.82318	0.73247
974.77103	0.76717
972.71888	0.80102
970.66673	0.83108
968.61458	0.85583
966.56243	0.87459
964.51028	0.88757
962.45813	0.89557
960.40598	0.89990
958.35383	0.90172
956.30168	0.90089
954.24953	0.89610
952.19738	0.88563
950.14523	0.86860
948.09308	0.84605
946.04093	0.82094
943.98878	0.79778
941.93663	0.78105
939.88449	0.77302
937.83234	0.77346
935.78019	0.77963
933.72804	0.78667
931.67589	0.78963
929.62374	0.78572
927.57159	0.77513
925.51944	0.76064
923.46729	0.74653
921.41514	0.73698
919.36299	0.73511
917.31084	0.74262
915.25869	0.75964
913.20654	0.78424
911.15439	0.81350
909.10224	0.84438
907.05009	0.87399
904.99794	0.90026
902.94579	0.92222
900.89364	0.93986
898.84149	0.95371
896.78935	0.96444
894.73720	0.97262
892.68505	0.97872
890.63290	0.98331
888.58075	0.98675
886.52860	0.98915
884.47645	0.99047
882.42430	0.99055
880.37215	0.98928
878.32000	0.98674
876.26785	0.98339
874.21570	0.97972
872.16355	0.97599
870.11140	0.97294
868.05925	0.97210
866.00710	0.97453
863.95495	0.97967
861.90280	0.98583
859.85065	0.99176
857.79850	0.99664
855.74635	0.99944
853.69420	1.00000
851.64206	0.99959
849.58991	0.99901
847.53776	0.99879
845.48561	0.99905
843.43346	0.99945
841.38131	0.99979
839.32916	1.00000
837.27701	0.99983
835.22486	0.99894
833.17271	0.99696
831.12056	0.99381
829.06841	0.98968
827.01626	0.98500
824.96411	0.98033
822.91196	0.97566
820.85981	0.97120
818.80766	0.96751
816.75551	0.96458
814.70336	0.96192
812.65121	0.95935
810.59906	0.95755
808.54692	0.95644
806.49477	0.95470
804.44262	0.95152
802.39047	0.94725
800.33832	0.94267
798.28617	0.93831
796.23402	0.93386
794.18187	0.92884
792.12972	0.92334
790.07757	0.91770
788.02542	0.91249
785.97327	0.90819
783.92112	0.90478
781.86897	0.90230
779.81682	0.90108
777.76467	0.90124
775.71252	0.90264
773.66037	0.90458
771.60822	0.90619
769.55607	0.90712
767.50392	0.90751
765.45178	0.90700
763.39963	0.90489
761.34748	0.90194
759.29533	0.89977
757.24318	0.89869
755.19103	0.89787
753.13888	0.89669
751.08673	0.89513
749.03458	0.89333
746.98243	0.89142
744.93028	0.88960
742.87813	0.88785
740.82598	0.88576
738.77383	0.88331
736.72168	0.88104
734.66953	0.87864
732.61738	0.87585
730.56523	0.87328
728.51308	0.87083
726.46093	0.86786
724.40878	0.86481
722.35663	0.86204
720.30449	0.85933
718.25234	0.85665
716.20019	0.85390
714.14804	0.85060
712.09589	0.84688
710.04374	0.84338
707.99159	0.84006
705.93944	0.83693
703.88729	0.83413
701.83514	0.83124
699.78299	0.82812
697.73084	0.82480
695.67869	0.82166
693.62654	0.81925
691.57439	0.81677
689.52224	0.81358
687.47009	0.81065
685.41794	0.80807
683.36579	0.80499
681.31364	0.80177
679.26149	0.79901
677.20935	0.79668
675.15720	0.79475
673.10505	0.79299
671.05290	0.79126
669.00075	0.78868
666.94860	0.78544
664.89645	0.78380
662.84430	0.78232
660.79215	0.77989
658.74000	0.77736
656.68785	0.77531
654.63570	0.77369
652.58355	0.77231
650.53140	0.77028
648.47925	0.76746
646.42710	0.76523
644.37495	0.76439
642.32280	0.76420
640.27065	0.76291
638.21850	0.76039
636.16635	0.75842
634.11421	0.75746
632.06206	0.75628
630.00991	0.75468
627.95776	0.75338
625.90561	0.75268
623.85346	0.75221
621.80131	0.75203
619.74916	0.75232
617.69701	0.75254
615.64486	0.75341
613.59271	0.75528
611.54056	0.75707
609.48841	0.75868
607.43626	0.75990
605.38411	0.76026
603.33196	0.76056
601.27981	0.76143
599.22766	0.76198
597.17551	0.76169
595.12336	0.76178
593.07121	0.76268
591.01906	0.76309
588.96692	0.76319
586.91477	0.76370
584.86262	0.76424
582.81047	0.76515
580.75832	0.76701
578.70617	0.76986
576.65402	0.77304
574.60187	0.77507
572.54972	0.77626
570.49757	0.77786
568.44542	0.78044
566.39327	0.78376
564.34112	0.78702
562.28897	0.79048
560.23682	0.79412
558.18467	0.79710
556.13252	0.79961
554.08037	0.80206
552.02822	0.80401
549.97607	0.80502
547.92392	0.80582
545.87178	0.80709
543.81963	0.80733
541.76748	0.80568
539.71533	0.80261
537.66318	0.79727
535.61103	0.78878
533.55888	0.77703
531.50673	0.76321
529.45458	0.75015
527.40243	0.74056
525.35028	0.73784
523.29813	0.74369
521.24598	0.75485
519.19383	0.76925
517.14168	0.78571
515.08953	0.79939
513.03738	0.80866
510.98523	0.81619
508.93308	0.82296
506.88093	0.82938
504.82878	0.83540
502.77664	0.84162
500.72449	0.84914
498.67234	0.85671
496.62019	0.86260
494.56804	0.86633
492.51589	0.86943
490.46374	0.87400
488.41159	0.87905
486.35944	0.88217
484.30729	0.88430
482.25514	0.88649
480.20299	0.88836
478.15084	0.89218
476.09869	0.89916
474.04654	0.90824
471.99439	0.91791
469.94224	0.92499
467.89009	0.92967
465.83794	0.93396
463.78579	0.93844
461.73364	0.94315
459.68149	0.94687
457.62935	0.94858
455.57720	0.94931
453.52505	0.95044
451.47290	0.95111
449.42075	0.95040
447.36860	0.94939
445.31645	0.94869
443.26430	0.94826
441.21215	0.94777
439.16000	0.94600
437.10785	0.94291
435.05570	0.93977
433.00355	0.93795
430.95140	0.93752
428.89925	0.93702
426.84710	0.93751
424.79495	0.94071
422.74280	0.94389
420.69065	0.94725
418.63850	0.95320
416.58635	0.95691
414.53421	0.95935
412.48206	0.96386
410.42991	0.96861
408.37776	0.97072
406.32561	0.97185
404.27346	0.97643
402.22131	0.98559
400.16916	0.99590
398.11701	1.00000
