3997.58729	1.00170
3995.53514	1.00150
3993.48299	1.00121
3991.43084	1.00100
3989.37869	1.00105
3987.32654	1.00116
3985.27439	1.00112
3983.22224	1.00089
3981.17009	1.00070
3979.11794	1.00065
3977.06579	1.00063
3975.01364	1.00057
3972.96149	1.00036
3970.90934	1.00026
3968.85719	1.00040
3966.80504	1.00048
3964.75289	1.00042
3962.70074	1.00039
3960.64859	1.00032
3958.59645	1.00009
3956.54430	0.99982
3954.49215	0.99968
3952.44000	0.99971
3950.38785	0.99995
3948.33570	1.00000
3946.28355	0.99963
3944.23140	0.99931
3942.17925	0.99930
3940.12710	0.99963
3938.07495	0.99991
3936.02280	0.99986
3933.97065	1.00002
3931.91850	1.00025
3929.86635	0.99994
3927.81420	0.99950
3925.76205	0.99949
3923.70990	0.99962
3921.65775	0.99950
3919.60560	0.99954
3917.55345	0.99972
3915.50131	0.99933
3913.44916	0.99866
3911.39701	0.99846
3909.34486	0.99874
3907.29271	0.99927
3905.24056	0.99985
3903.18841	1.00000
3901.13626	0.99979
3899.08411	0.99965
3897.03196	0.99937
3894.97981	0.99902
3892.92766	0.99888
3890.87551	0.99887
3888.82336	0.99905
3886.77121	0.99930
3884.71906	0.99904
3882.66691	0.99882
3880.61476	0.99893
3878.56261	0.99857
3876.51046	0.99826
3874.45831	0.99848
3872.40616	0.99892
3870.35402	0.99934
3868.30187	0.99946
3866.24972	0.99944
3864.19757	0.99933
3862.14542	0.99879
3860.09327	0.99820
3858.04112	0.99814
3855.98897	0.99886
3853.93682	1.00000
3851.88467	0.99979
3849.83252	0.99870
3847.78037	0.99819
3845.72822	0.99833
3843.67607	0.99868
3841.62392	0.99883
3839.57177	0.99885
3837.51962	0.99864
3835.46747	0.99831
3833.41532	0.99816
3831.36317	0.99803
3829.31102	0.99797
3827.25888	0.99804
3825.20673	0.99822
3823.15458	0.99884
3821.10243	0.99950
3819.05028	0.99927
3816.99813	0.99884
3814.94598	0.99819
3812.89383	0.99747
3810.84168	0.99721
3808.78953	0.99750
3806.73738	0.99809
3804.68523	0.99835
3802.63308	0.99825
3800.58093	0.99785
3798.52878	0.99753
3796.47663	0.99739
3794.42448	0.99716
3792.37233	0.99698
3790.32018	0.99698
3788.26803	0.99710
3786.21588	0.99716
3784.16374	0.99698
3782.11159	0.99683
3780.05944	0.99692
3778.00729	0.99676
3775.95514	0.99649
3773.90299	0.99662
3771.85084	0.99697
3769.79869	0.99713
3767.74654	0.99711
3765.69439	0.99707
3763.64224	0.99686
3761.59009	0.99680
3759.53794	0.99709
3757.48579	0.99745
3755.43364	0.99790
3753.38149	0.99878
3751.32934	0.99970
3749.27719	0.99961
3747.22504	0.99918
3745.17289	0.99892
3743.12074	0.99851
3741.06859	0.99827
3739.01645	0.99848
3736.96430	0.99926
3734.91215	1.00000
3732.86000	0.99928
3730.80785	0.99783
3728.75570	0.99696
3726.70355	0.99681
3724.65140	0.99705
3722.59925	0.99714
3720.54710	0.99698
3718.49495	0.99668
3716.44280	0.99647
3714.39065	0.99682
3712.33850	0.99762
3710.28635	0.99760
3708.23420	0.99672
3706.18205	0.99622
3704.12990	0.99629
3702.07775	0.99660
3700.02560	0.99666
3697.97345	0.99622
3695.92131	0.99566
3693.86916	0.99589
3691.81701	0.99724
3689.76486	0.99821
3687.71271	0.99738
3685.66056	0.99631
3683.60841	0.99591
3681.55626	0.99589
3679.50411	0.99590
3677.45196	0.99600
3675.39981	0.99602
3673.34766	0.99578
3671.29551	0.99618
3669.24336	0.99643
3667.19121	0.99566
3665.13906	0.99492
3663.08691	0.99454
3661.03476	0.99442
3658.98261	0.99444
3656.93046	0.99436
3654.87831	0.99423
3652.82617	0.99473
3650.77402	0.99579
3648.72187	0.99574
3646.66972	0.99429
3644.61757	0.99330
3642.56542	0.99275
3640.51327	0.99229
3638.46112	0.99195
3636.40897	0.99159
3634.35682	0.99115
3632.30467	0.99117
3630.25252	0.99184
3628.20037	0.99149
3626.14822	0.98981
3624.09607	0.98878
3622.04392	0.98860
3619.99177	0.98871
3617.93962	0.98818
3615.88747	0.98729
3613.83532	0.98666
3611.78317	0.98605
3609.73102	0.98520
3607.67888	0.98390
3605.62673	0.98244
3603.57458	0.98141
3601.52243	0.98079
3599.47028	0.98031
3597.41813	0.97974
3595.36598	0.97877
3593.31383	0.97731
3591.26168	0.97619
3589.20953	0.97567
3587.15738	0.97447
3585.10523	0.97259
3583.05308	0.97138
3581.00093	0.97038
3578.94878	0.96911
3576.89663	0.96775
3574.84448	0.96634
3572.79233	0.96503
3570.74018	0.96398
3568.68803	0.96313
3566.63588	0.96195
3564.58374	0.96021
3562.53159	0.95832
3560.47944	0.95632
3558.42729	0.95433
3556.37514	0.95263
3554.32299	0.95099
3552.27084	0.94897
3550.21869	0.94672
3548.16654	0.94480
3546.11439	0.94312
3544.06224	0.94115
3542.01009	0.93878
3539.95794	0.93621
3537.90579	0.93366
3535.85364	0.93121
3533.80149	0.92881
3531.74934	0.92662
3529.69719	0.92463
3527.64504	0.92234
3525.59289	0.91969
3523.54074	0.91697
3521.48860	0.91408
3519.43645	0.91116
3517.38430	0.90827
3515.33215	0.90546
3513.28000	0.90269
3511.22785	0.89986
3509.17570	0.89696
3507.12355	0.89415
3505.07140	0.89154
3503.01925	0.88864
3500.96710	0.88548
3498.91495	0.88236
3496.86280	0.87892
3494.81065	0.87534
3492.75850	0.87230
3490.70635	0.86954
3488.65420	0.86639
3486.60205	0.86278
3484.54990	0.85922
3482.49775	0.85596
3480.44560	0.85291
3478.39345	0.84988
3476.34131	0.84667
3474.28916	0.84318
3472.23701	0.83953
3470.18486	0.83606
3468.13271	0.83278
3466.08056	0.82949
3464.02841	0.82629
3461.97626	0.82305
3459.92411	0.81961
3457.87196	0.81619
3455.81981	0.81273
3453.76766	0.80910
3451.71551	0.80555
3449.66336	0.80231
3447.61121	0.79922
3445.55906	0.79595
3443.50691	0.79248
3441.45476	0.78884
3439.40261	0.78538
3437.35046	0.78207
3435.29831	0.77875
3433.24617	0.77562
3431.19402	0.77256
3429.14187	0.76931
3427.08972	0.76599
3425.03757	0.76281
3422.98542	0.75966
3420.93327	0.75634
3418.88112	0.75296
3416.82897	0.74977
3414.77682	0.74677
3412.72467	0.74383
3410.67252	0.74082
3408.62037	0.73757
3406.56822	0.73426
3404.51607	0.73135
3402.46392	0.72872
3400.41177	0.72594
3398.35962	0.72293
3396.30747	0.71980
3394.25532	0.71687
3392.20317	0.71409
3390.15103	0.71117
3388.09888	0.70827
3386.04673	0.70568
3383.99458	0.70311
3381.94243	0.70031
3379.89028	0.69748
3377.83813	0.69461
3375.78598	0.69166
3373.73383	0.68885
3371.68168	0.68650
3369.62953	0.68438
3367.57738	0.68203
3365.52523	0.67955
3363.47308	0.67729
3361.42093	0.67520
3359.36878	0.67295
3357.31663	0.67054
3355.26448	0.66842
3353.21233	0.66670
3351.16018	0.66488
3349.10803	0.66271
3347.05588	0.66073
3345.00374	0.65933
3342.95159	0.65808
3340.89944	0.65657
3338.84729	0.65503
3336.79514	0.65361
3334.74299	0.65224
3332.69084	0.65094
3330.63869	0.64985
3328.58654	0.64887
3326.53439	0.64796
3324.48224	0.64712
3322.43009	0.64630
3320.37794	0.64563
3318.32579	0.64511
3316.27364	0.64460
3314.22149	0.64426
3312.16934	0.64400
3310.11719	0.64386
3308.06504	0.64395
3306.01289	0.64406
3303.96074	0.64401
3301.90860	0.64397
3299.85645	0.64417
3297.80430	0.64448
3295.75215	0.64479
3293.70000	0.64530
3291.64785	0.64597
3289.59570	0.64661
3287.54355	0.64727
3285.49140	0.64810
3283.43925	0.64900
3281.38710	0.64997
3279.33495	0.65114
3277.28280	0.65225
3275.23065	0.65330
3273.17850	0.65462
3271.12635	0.65616
3269.07420	0.65761
3267.02205	0.65909
3264.96990	0.66076
3262.91775	0.66243
3260.86560	0.66413
3258.81346	0.66590
3256.76131	0.66773
3254.70916	0.66959
3252.65701	0.67139
3250.60486	0.67346
3248.55271	0.67594
3246.50056	0.67827
3244.44841	0.68046
3242.39626	0.68284
3240.34411	0.68530
3238.29196	0.68792
3236.23981	0.69070
3234.18766	0.69347
3232.13551	0.69625
3230.08336	0.69900
3228.03121	0.70183
3225.97906	0.70484
3223.92691	0.70788
3221.87476	0.71095
3219.82261	0.71394
3217.77046	0.71682
3215.71832	0.71987
3213.66617	0.72313
3211.61402	0.72644
3209.56187	0.72968
3207.50972	0.73278
3205.45757	0.73600
3203.40542	0.73951
3201.35327	0.74300
3199.30112	0.74642
3197.24897	0.74995
3195.19682	0.75360
3193.14467	0.75719
3191.09252	0.76051
3189.04037	0.76382
3186.98822	0.76741
3184.93607	0.77109
3182.88392	0.77472
3180.83177	0.77833
3178.77962	0.78176
3176.72747	0.78506
3174.67532	0.78851
3172.62317	0.79204
3170.57103	0.79544
3168.51888	0.79868
3166.46673	0.80192
3164.41458	0.80518
3162.36243	0.80848
3160.31028	0.81185
3158.25813	0.81527
3156.20598	0.81862
3154.15383	0.82175
3152.10168	0.82478
3150.04953	0.82781
3147.99738	0.83071
3145.94523	0.83367
3143.89308	0.83682
3141.84093	0.83982
3139.78878	0.84259
3137.73663	0.84533
3135.68448	0.84817
3133.63233	0.85098
3131.58018	0.85363
3129.52803	0.85629
3127.47589	0.85891
3125.42374	0.86138
3123.37159	0.86398
3121.31944	0.86678
3119.26729	0.86935
3117.21514	0.87154
3115.16299	0.87367
3113.11084	0.87585
3111.05869	0.87796
3109.00654	0.88009
3106.95439	0.88231
3104.90224	0.88454
3102.85009	0.88679
3100.79794	0.88900
3098.74579	0.89101
3096.69364	0.89277
3094.64149	0.89435
3092.58934	0.89596
3090.53719	0.89772
3088.48504	0.89964
3086.43289	0.90153
3084.38075	0.90314
3082.32860	0.90463
3080.27645	0.90635
3078.22430	0.90810
3076.17215	0.90945
3074.12000	0.91062
3072.06785	0.91210
3070.01570	0.91384
3067.96355	0.91535
3065.91140	0.91661
3063.85925	0.91784
3061.80710	0.91901
3059.75495	0.92020
3057.70280	0.92142
3055.65065	0.92250
3053.59850	0.92354
3051.54635	0.92469
3049.49420	0.92583
3047.44205	0.92688
3045.38990	0.92781
3043.33775	0.92863
3041.28560	0.92947
3039.23346	0.93030
3037.18131	0.93096
3035.12916	0.93155
3033.07701	0.93233
3031.02486	0.93320
3028.97271	0.93397
3026.92056	0.93458
3024.86841	0.93497
3022.81626	0.93523
3020.76411	0.93553
3018.71196	0.93598
3016.65981	0.93644
3014.60766	0.93664
3012.55551	0.93667
3010.50336	0.93679
3008.45121	0.93683
3006.39906	0.93657
3004.34691	0.93626
3002.29476	0.93594
3000.24261	0.93535
2998.19046	0.93459
2996.13832	0.93357
2994.08617	0.93196
2992.03402	0.92987
2989.98187	0.92732
2987.92972	0.92405
2985.87757	0.91997
2983.82542	0.91491
2981.77327	0.90853
2979.72112	0.90102
2977.66897	0.89257
2975.61682	0.88311
2973.56467	0.87276
2971.51252	0.86164
2969.46037	0.84996
2967.40822	0.83814
2965.35607	0.82655
2963.30392	0.81522
2961.25177	0.80408
2959.19962	0.79308
2957.14747	0.78209
2955.09532	0.77124
2953.04318	0.76081
2950.99103	0.75100
2948.93888	0.74239
2946.88673	0.73573
2944.83458	0.73133
2942.78243	0.72926
2940.73028	0.72929
2938.67813	0.73054
2936.62598	0.73223
2934.57383	0.73426
2932.52168	0.73666
2930.46953	0.73957
2928.41738	0.74323
2926.36523	0.74768
2924.31308	0.75274
2922.26093	0.75812
2920.20878	0.76356
2918.15663	0.76871
2916.10448	0.77328
2914.05233	0.77728
2912.00018	0.78089
2909.94803	0.78402
2907.89589	0.78639
2905.84374	0.78763
2903.79159	0.78745
2901.73944	0.78571
2899.68729	0.78240
2897.63514	0.77759
2895.58299	0.77136
2893.53084	0.76375
2891.47869	0.75508
2889.42654	0.74592
2887.37439	0.73710
2885.32224	0.72946
2883.27009	0.72320
2881.21794	0.71824
2879.16579	0.71479
2877.11364	0.71308
2875.06149	0.71301
2873.00934	0.71445
2870.95719	0.71748
2868.90504	0.72195
2866.85289	0.72761
2864.80075	0.73417
2862.74860	0.74133
2860.69645	0.74884
2858.64430	0.75640
2856.59215	0.76391
2854.54000	0.77155
2852.48785	0.77957
2850.43570	0.78809
2848.38355	0.79687
2846.33140	0.80558
2844.27925	0.81414
2842.22710	0.82235
2840.17495	0.82982
2838.12280	0.83649
2836.07065	0.84249
2834.01850	0.84789
2831.96635	0.85296
2829.91420	0.85782
2827.86205	0.86226
2825.80990	0.86642
2823.75775	0.87044
2821.70561	0.87412
2819.65346	0.87737
2817.60131	0.88041
2815.54916	0.88340
2813.49701	0.88613
2811.44486	0.88854
2809.39271	0.89087
2807.34056	0.89322
2805.28841	0.89564
2803.23626	0.89812
2801.18411	0.90056
2799.13196	0.90298
2797.07981	0.90542
2795.02766	0.90776
2792.97551	0.91004
2790.92336	0.91235
2788.87121	0.91458
2786.81906	0.91652
2784.76691	0.91820
2782.71476	0.91974
2780.66261	0.92123
2778.61046	0.92268
2776.55832	0.92390
2774.50617	0.92476
2772.45402	0.92547
2770.40187	0.92626
2768.34972	0.92710
2766.29757	0.92775
2764.24542	0.92836
2762.19327	0.92918
2760.14112	0.92995
2758.08897	0.93039
2756.03682	0.93057
2753.98467	0.93080
2751.93252	0.93125
2749.88037	0.93172
2747.82822	0.93197
2745.77607	0.93229
2743.72392	0.93294
2741.67177	0.93367
2739.61962	0.93434
2737.56747	0.93500
2735.51532	0.93565
2733.46318	0.93621
2731.41103	0.93666
2729.35888	0.93713
2727.30673	0.93769
2725.25458	0.93832
2723.20243	0.93914
2721.15028	0.94015
2719.09813	0.94115
2717.04598	0.94214
2714.99383	0.94332
2712.94168	0.94459
2710.88953	0.94573
2708.83738	0.94672
2706.78523	0.94770
2704.73308	0.94873
2702.68093	0.94968
2700.62878	0.95032
2698.57663	0.95075
2696.52448	0.95130
2694.47233	0.95200
2692.42018	0.95264
2690.36804	0.95319
2688.31589	0.95378
2686.26374	0.95453
2684.21159	0.95529
2682.15944	0.95576
2680.10729	0.95604
2678.05514	0.95651
2676.00299	0.95723
2673.95084	0.95787
2671.89869	0.95817
2669.84654	0.95830
2667.79439	0.95858
2665.74224	0.95903
2663.69009	0.95938
2661.63794	0.95955
2659.58579	0.95978
2657.53364	0.96021
2655.48149	0.96065
2653.42934	0.96104
2651.37719	0.96142
2649.32504	0.96174
2647.27289	0.96195
2645.22075	0.96210
2643.16860	0.96246
2641.11645	0.96298
2639.06430	0.96337
2637.01215	0.96373
2634.96000	0.96418
2632.90785	0.96453
2630.85570	0.96475
2628.80355	0.96503
2626.75140	0.96541
2624.69925	0.96576
2622.64710	0.96629
2620.59495	0.96687
2618.54280	0.96701
2616.49065	0.96690
2614.43850	0.96709
2612.38635	0.96768
2610.33420	0.96831
2608.28205	0.96865
2606.22990	0.96885
2604.17775	0.96927
2602.12561	0.96977
2600.07346	0.96999
2598.02131	0.97014
2595.96916	0.97043
2593.91701	0.97075
2591.86486	0.97103
2589.81271	0.97139
2587.76056	0.97201
2585.70841	0.97257
2583.65626	0.97279
2581.60411	0.97314
2579.55196	0.97371
2577.49981	0.97415
2575.44766	0.97453
2573.39551	0.97465
2571.34336	0.97448
2569.29121	0.97461
2567.23906	0.97495
2565.18691	0.97507
2563.13476	0.97501
2561.08261	0.97501
2559.03047	0.97525
2556.97832	0.97565
2554.92617	0.97576
2552.87402	0.97558
2550.82187	0.97550
2548.76972	0.97539
2546.71757	0.97519
2544.66542	0.97526
2542.61327	0.97565
2540.56112	0.97601
2538.50897	0.97603
2536.45682	0.97583
2534.40467	0.97580
2532.35252	0.97608
2530.30037	0.97622
2528.24822	0.97615
2526.19607	0.97619
2524.14392	0.97635
2522.09177	0.97657
2520.03962	0.97693
2517.98747	0.97718
2515.93532	0.97722
2513.88318	0.97728
2511.83103	0.97744
2509.77888	0.97749
2507.72673	0.97733
2505.67458	0.97712
2503.62243	0.97721
2501.57028	0.97759
2499.51813	0.97800
2497.46598	0.97834
2495.41383	0.97866
2493.36168	0.97877
2491.30953	0.97877
2489.25738	0.97904
2487.20523	0.97948
2485.15308	0.97982
2483.10093	0.98014
2481.04878	0.98051
2478.99663	0.98067
2476.94448	0.98069
2474.89233	0.98090
2472.84018	0.98112
2470.78804	0.98126
2468.73589	0.98151
2466.68374	0.98177
2464.63159	0.98182
2462.57944	0.98184
2460.52729	0.98217
2458.47514	0.98262
2456.42299	0.98291
2454.37084	0.98310
2452.31869	0.98321
2450.26654	0.98324
2448.21439	0.98349
2446.16224	0.98400
2444.11009	0.98443
2442.05794	0.98459
2440.00579	0.98473
2437.95364	0.98496
2435.90149	0.98493
2433.84934	0.98465
2431.79719	0.98476
2429.74504	0.98536
2427.69290	0.98587
2425.64075	0.98591
2423.58860	0.98572
2421.53645	0.98560
2419.48430	0.98541
2417.43215	0.98508
2415.38000	0.98512
2413.32785	0.98551
2411.27570	0.98561
2409.22355	0.98550
2407.17140	0.98565
2405.11925	0.98566
2403.06710	0.98545
2401.01495	0.98561
2398.96280	0.98597
2396.91065	0.98613
2394.85850	0.98613
2392.80635	0.98599
2390.75420	0.98596
2388.70205	0.98630
2386.64990	0.98664
2384.59775	0.98665
2382.54561	0.98656
2380.49346	0.98663
2378.44131	0.98682
2376.38916	0.98679
2374.33701	0.98630
2372.28486	0.98570
2370.23271	0.98582
2368.18056	0.98661
2366.12841	0.98698
2364.07626	0.98662
2362.02411	0.98621
2359.97196	0.98648
2357.91981	0.98707
2355.86766	0.98726
2353.81551	0.98698
2351.76336	0.98649
2349.71121	0.98613
2347.65906	0.98601
2345.60691	0.98619
2343.55476	0.98667
2341.50261	0.98737
2339.45047	0.98794
2337.39832	0.98790
2335.34617	0.98780
2333.29402	0.98803
2331.24187	0.98788
2329.18972	0.98751
2327.13757	0.98770
2325.08542	0.98823
2323.03327	0.98866
2320.98112	0.98879
2318.92897	0.98865
2316.87682	0.98859
2314.82467	0.98874
2312.77252	0.98899
2310.72037	0.98921
2308.66822	0.98914
2306.61607	0.98892
2304.56392	0.98885
2302.51177	0.98880
2300.45962	0.98888
2298.40747	0.98919
2296.35533	0.98938
2294.30318	0.98941
2292.25103	0.98959
2290.19888	0.98990
2288.14673	0.98987
2286.09458	0.98960
2284.04243	0.98955
2281.99028	0.98992
2279.93813	0.99049
2277.88598	0.99068
2275.83383	0.99043
2273.78168	0.99028
2271.72953	0.99083
2269.67738	0.99165
2267.62523	0.99185
2265.57308	0.99182
2263.52093	0.99193
2261.46878	0.99197
2259.41663	0.99180
2257.36448	0.99173
2255.31233	0.99222
2253.26018	0.99315
2251.20804	0.99405
2249.15589	0.99420
2247.10374	0.99339
2245.05159	0.99245
2242.99944	0.99175
2240.94729	0.99129
2238.89514	0.99189
2236.84299	0.99292
2234.79084	0.99290
2232.73869	0.99258
2230.68654	0.99292
2228.63439	0.99338
2226.58224	0.99323
2224.53009	0.99271
2222.47794	0.99278
2220.42579	0.99355
2218.37364	0.99453
2216.32149	0.99504
2214.26934	0.99450
2212.21719	0.99380
2210.16504	0.99370
2208.11290	0.99365
2206.06075	0.99365
2204.00860	0.99382
2201.95645	0.99394
2199.90430	0.99417
2197.85215	0.99448
2195.80000	0.99474
2193.74785	0.99486
2191.69570	0.99502
2189.64355	0.99595
2187.59140	0.99738
2185.53925	0.99800
2183.48710	0.99795
2181.43495	0.99814
2179.38280	0.99794
2177.33065	0.99682
2175.27850	0.99583
2173.22635	0.99598
2171.17420	0.99660
2169.12205	0.99680
2167.06990	0.99750
2165.01776	0.99879
2162.96561	0.99904
2160.91346	0.99888
2158.86131	0.99975
2156.80916	1.00000
2154.75701	0.99846
2152.70486	0.99670
2150.65271	0.99578
2148.60056	0.99556
2146.54841	0.99568
2144.49626	0.99557
2142.44411	0.99545
2140.39196	0.99526
2138.33981	0.99463
2136.28766	0.99417
2134.23551	0.99421
2132.18336	0.99434
2130.13121	0.99449
2128.07906	0.99464
2126.02691	0.99426
2123.97476	0.99322
2121.92262	0.99238
2119.87047	0.99241
2117.81832	0.99303
2115.76617	0.99367
2113.71402	0.99423
2111.66187	0.99467
2109.60972	0.99456
2107.55757	0.99417
2105.50542	0.99421
2103.45327	0.99443
2101.40112	0.99443
2099.34897	0.99428
2097.29682	0.99403
2095.24467	0.99412
2093.19252	0.99461
2091.14037	0.99488
2089.08822	0.99493
2087.03607	0.99480
2084.98392	0.99457
2082.93177	0.99482
2080.87962	0.99567
2078.82747	0.99637
2076.77533	0.99640
2074.72318	0.99626
2072.67103	0.99636
2070.61888	0.99647
2068.56673	0.99618
2066.51458	0.99544
2064.46243	0.99488
2062.41028	0.99484
2060.35813	0.99506
2058.30598	0.99532
2056.25383	0.99525
2054.20168	0.99494
2052.14953	0.99505
2050.09738	0.99587
2048.04523	0.99691
2045.99308	0.99673
2043.94093	0.99540
2041.88878	0.99505
2039.83663	0.99618
2037.78448	0.99736
2035.73233	0.99765
2033.68019	0.99758
2031.62804	0.99807
2029.57589	0.99885
2027.52374	0.99899
2025.47159	0.99824
2023.41944	0.99765
2021.36729	0.99808
2019.31514	0.99872
2017.26299	0.99875
2015.21084	0.99884
2013.15869	0.99925
2011.10654	0.99930
2009.05439	0.99910
2007.00224	0.99890
2004.95009	0.99862
2002.89794	0.99874
2000.84579	0.99874
1998.79364	0.99766
1996.74149	0.99638
1994.68934	0.99645
1992.63719	0.99783
1990.58505	0.99923
1988.53290	1.00000
1986.48075	1.00002
1984.42860	0.99996
1982.37645	1.00019
1980.32430	0.99948
1978.27215	0.99795
1976.22000	0.99740
1974.16785	0.99846
1972.11570	0.99984
1970.06355	1.00034
1968.01140	0.99975
1965.95925	0.99853
1963.90710	0.99770
1961.85495	0.99799
1959.80280	0.99873
1957.75065	0.99917
1955.69850	0.99968
1953.64635	1.00012
1951.59420	0.99966
1949.54205	0.99851
1947.48990	0.99777
1945.43776	0.99775
1943.38561	0.99785
1941.33346	0.99732
1939.28131	0.99629
1937.22916	0.99560
1935.17701	0.99593
1933.12486	0.99683
1931.07271	0.99709
1929.02056	0.99671
1926.96841	0.99671
1924.91626	0.99704
1922.86411	0.99691
1920.81196	0.99690
1918.75981	0.99739
1916.70766	0.99776
1914.65551	0.99790
1912.60336	0.99789
1910.55121	0.99802
1908.49906	0.99839
1906.44691	0.99824
1904.39476	0.99767
1902.34262	0.99735
1900.29047	0.99721
1898.23832	0.99746
1896.18617	0.99823
1894.13402	0.99894
1892.08187	0.99911
1890.02972	0.99880
1887.97757	0.99844
1885.92542	0.99825
1883.87327	0.99809
1881.82112	0.99798
1879.76897	0.99788
1877.71682	0.99780
1875.66467	0.99802
1873.61252	0.99843
1871.56037	0.99902
1869.50822	0.99952
1867.45607	0.99892
1865.40392	0.99800
1863.35177	0.99787
1861.29962	0.99813
1859.24748	0.99829
1857.19533	0.99827
1855.14318	0.99816
1853.09103	0.99814
1851.03888	0.99845
1848.98673	0.99880
1846.93458	0.99899
1844.88243	0.99921
1842.83028	0.99911
1840.77813	0.99874
1838.72598	0.99839
1836.67383	0.99801
1834.62168	0.99793
1832.56953	0.99832
1830.51738	0.99876
1828.46523	0.99877
1826.41308	0.99859
1824.36093	0.99841
1822.30878	0.99831
1820.25663	0.99844
1818.20448	0.99863
1816.15233	0.99867
1814.10019	0.99876
1812.04804	0.99911
1809.99589	0.99941
1807.94374	0.99933
1805.89159	0.99908
1803.83944	0.99903
1801.78729	0.99927
1799.73514	0.99946
1797.68299	0.99929
1795.63084	0.99915
1793.57869	0.99928
1791.52654	0.99925
1789.47439	0.99895
1787.42224	0.99887
1785.37009	0.99904
1783.31794	0.99914
1781.26579	0.99904
1779.21364	0.99887
1777.16149	0.99894
1775.10934	0.99915
1773.05719	0.99925
1771.00505	0.99925
1768.95290	0.99907
1766.90075	0.99871
1764.84860	0.99855
1762.79645	0.99866
1760.74430	0.99864
1758.69215	0.99855
1756.64000	0.99850
1754.58785	0.99852
1752.53570	0.99891
1750.48355	0.99938
1748.43140	0.99925
1746.37925	0.99889
1744.32710	0.99877
1742.27495	0.99880
1740.22280	0.99869
1738.17065	0.99853
1736.11850	0.99883
1734.06635	0.99938
1732.01420	0.99927
1729.96205	0.99885
1727.90991	0.99860
1725.85776	0.99863
1723.80561	0.99875
1721.75346	0.99893
1719.70131	0.99952
1717.64916	1.00000
1715.59701	0.99916
1713.54486	0.99784
1711.49271	0.99693
1709.44056	0.99643
1707.38841	0.99640
1705.33626	0.99653
1703.28411	0.99660
1701.23196	0.99696
1699.17981	0.99729
1697.12766	0.99680
1695.07551	0.99558
1693.02336	0.99468
1690.97121	0.99449
1688.91906	0.99462
1686.86691	0.99490
1684.81476	0.99490
1682.76262	0.99367
1680.71047	0.99239
1678.65832	0.99176
1676.60617	0.99161
1674.55402	0.99142
1672.50187	0.99117
1670.44972	0.99112
1668.39757	0.99063
1666.34542	0.99001
1664.29327	0.98989
1662.24112	0.98999
1660.18897	0.99001
1658.13682	0.99033
1656.08467	0.99123
1654.03252	0.99247
1651.98037	0.99251
1649.92822	0.99240
1647.87607	0.99310
1645.82392	0.99342
1643.77177	0.99315
1641.71962	0.99319
1639.66748	0.99365
1637.61533	0.99465
1635.56318	0.99562
1633.51103	0.99533
1631.45888	0.99507
1629.40673	0.99547
1627.35458	0.99609
1625.30243	0.99672
1623.25028	0.99716
1621.19813	0.99724
1619.14598	0.99767
1617.09383	0.99830
1615.04168	0.99821
1612.98953	0.99805
1610.93738	0.99829
1608.88523	0.99860
1606.83308	0.99857
1604.78093	0.99848
1602.72878	0.99862
1600.67663	0.99877
1598.62448	0.99884
1596.57234	0.99895
1594.52019	0.99903
1592.46804	0.99890
1590.41589	0.99880
1588.36374	0.99879
1586.31159	0.99875
1584.25944	0.99862
1582.20729	0.99851
1580.15514	0.99868
1578.10299	0.99929
1576.05084	0.99952
1573.99869	0.99888
1571.94654	0.99877
1569.89439	0.99897
1567.84224	0.99860
1565.79009	0.99819
1563.73794	0.99821
1561.68579	0.99882
1559.63364	1.00000
1557.58149	0.99955
1555.52934	0.99834
1553.47719	0.99772
1551.42505	0.99726
1549.37290	0.99682
1547.32075	0.99665
1545.26860	0.99721
1543.21645	0.99851
1541.16430	0.99967
1539.11215	0.99827
1537.06000	0.99647
1535.00785	0.99587
1532.95570	0.99532
1530.90355	0.99457
1528.85140	0.99427
1526.79925	0.99417
1524.74710	0.99408
1522.69495	0.99404
1520.64280	0.99318
1518.59065	0.99187
1516.53850	0.99032
1514.48635	0.98853
1512.43420	0.98733
1510.38205	0.98706
1508.32991	0.98685
1506.27776	0.98354
1504.22561	0.97946
1502.17346	0.97706
1500.12131	0.97453
1498.06916	0.97016
1496.01701	0.96313
1493.96486	0.95596
1491.91271	0.94880
1489.86056	0.93768
1487.80841	0.92346
1485.75626	0.91130
1483.70411	0.90125
1481.65196	0.89191
1479.59981	0.88407
1477.54766	0.87895
1475.49551	0.87612
1473.44336	0.87518
1471.39121	0.87545
1469.33906	0.87713
1467.28691	0.88050
1465.23477	0.88498
1463.18262	0.88828
1461.13047	0.88965
1459.07832	0.88987
1457.02617	0.88749
1454.97402	0.88302
1452.92187	0.87935
1450.86972	0.87574
1448.81757	0.87108
1446.76542	0.86500
1444.71327	0.85878
1442.66112	0.85321
1440.60897	0.84897
1438.55682	0.84675
1436.50467	0.84558
1434.45252	0.84438
1432.40037	0.84258
1430.34822	0.83900
1428.29607	0.83363
1426.24392	0.82827
1424.19177	0.82362
1422.13962	0.82085
1420.08748	0.82103
1418.03533	0.82372
1415.98318	0.82720
1413.93103	0.83093
1411.87888	0.83521
1409.82673	0.83978
1407.77458	0.84439
1405.72243	0.84929
1403.67028	0.85427
1401.61813	0.85858
1399.56598	0.86240
1397.51383	0.86550
1395.46168	0.86714
1393.40953	0.86692
1391.35738	0.86538
1389.30523	0.86287
1387.25308	0.85873
1385.20093	0.85388
1383.14878	0.84980
1381.09663	0.84625
1379.04448	0.84278
1376.99234	0.83959
1374.94019	0.83705
1372.88804	0.83564
1370.83589	0.83601
1368.78374	0.83813
1366.73159	0.84155
1364.67944	0.84561
1362.62729	0.84949
1360.57514	0.85167
1358.52299	0.85201
1356.47084	0.85152
1354.41869	0.85095
1352.36654	0.85114
1350.31439	0.85274
1348.26224	0.85566
1346.21009	0.85944
1344.15794	0.86368
1342.10579	0.86792
1340.05364	0.87184
1338.00149	0.87508
1335.94934	0.87769
1333.89720	0.88007
1331.84505	0.88223
1329.79290	0.88417
1327.74075	0.88612
1325.68860	0.88815
1323.63645	0.89008
1321.58430	0.89182
1319.53215	0.89365
1317.48000	0.89587
1315.42785	0.89840
1313.37570	0.90107
1311.32355	0.90377
1309.27140	0.90641
1307.21925	0.90887
1305.16710	0.91101
1303.11495	0.91270
1301.06280	0.91374
1299.01065	0.91412
1296.95850	0.91412
1294.90635	0.91401
1292.85420	0.91425
1290.80205	0.91531
1288.74991	0.91744
1286.69776	0.92071
1284.64561	0.92497
1282.59346	0.92982
1280.54131	0.93499
1278.48916	0.94003
1276.43701	0.94424
1274.38486	0.94739
1272.33271	0.94968
1270.28056	0.95110
1268.22841	0.95159
1266.17626	0.95149
1264.12411	0.95097
1262.07196	0.94999
1260.01981	0.94872
1257.96766	0.94736
1255.91551	0.94590
1253.86336	0.94436
1251.81121	0.94284
1249.75906	0.94116
1247.70691	0.93935
1245.65477	0.93748
1243.60262	0.93536
1241.55047	0.93303
1239.49832	0.93096
1237.44617	0.92944
1235.39402	0.92855
1233.34187	0.92828
1231.28972	0.92863
1229.23757	0.92944
1227.18542	0.93054
1225.13327	0.93167
1223.08112	0.93268
1221.02897	0.93353
1218.97682	0.93407
1216.92467	0.93428
1214.87252	0.93434
1212.82037	0.93428
1210.76822	0.93405
1208.71607	0.93361
1206.66392	0.93310
1204.61177	0.93256
1202.55963	0.93184
1200.50748	0.93104
1198.45533	0.93043
1196.40318	0.93008
1194.35103	0.92989
1192.29888	0.93008
1190.24673	0.93104
1188.19458	0.93267
1186.14243	0.93475
1184.09028	0.93743
1182.03813	0.94085
1179.98598	0.94499
1177.93383	0.94962
1175.88168	0.95477
1173.82953	0.96047
1171.77738	0.96637
1169.72523	0.97216
1167.67308	0.97780
1165.62093	0.98304
1163.56878	0.98763
1161.51663	0.99165
1159.46448	0.99503
1157.41234	0.99744
1155.36019	0.99886
1153.30804	0.99951
1151.25589	0.99925
1149.20374	0.99790
1147.15159	0.99557
1145.09944	0.99235
1143.04729	0.98823
1140.99514	0.98299
1138.94299	0.97616
1136.89084	0.96705
1134.83869	0.95505
1132.78654	0.93984
1130.73439	0.92145
1128.68224	0.90053
1126.63009	0.87844
1124.57794	0.85686
1122.52579	0.83726
1120.47364	0.82063
1118.42149	0.80756
1116.36934	0.79816
1114.31720	0.79184
1112.26505	0.78773
1110.21290	0.78503
1108.16075	0.78268
1106.10860	0.77965
1104.05645	0.77566
1102.00430	0.77096
1099.95215	0.76605
1097.90000	0.76155
1095.84785	0.75791
1093.79570	0.75508
1091.74355	0.75219
1089.69140	0.74779
1087.63925	0.74038
1085.58710	0.72855
1083.53495	0.71108
1081.48280	0.68760
1079.43065	0.65907
1077.37850	0.62738
1075.32635	0.59432
1073.27420	0.56054
1071.22206	0.52608
1069.16991	0.49158
1067.11776	0.45813
1065.06561	0.42693
1063.01346	0.39961
1060.96131	0.37788
1058.90916	0.36314
1056.85701	0.35606
1054.80486	0.35609
1052.75271	0.36190
1050.70056	0.37177
1048.64841	0.38379
1046.59626	0.39622
1044.54411	0.40732
1042.49196	0.41486
1040.43981	0.41746
1038.38766	0.41604
1036.33551	0.41328
1034.28336	0.41279
1032.23121	0.41809
1030.17906	0.43130
1028.12692	0.45320
1026.07477	0.48326
1024.02262	0.51981
1021.97047	0.56066
1019.91832	0.60351
1017.86617	0.64636
1015.81402	0.68749
1013.76187	0.72556
1011.70972	0.75975
1009.65757	0.78908
1007.60542	0.81236
1005.55327	0.82865
1003.50112	0.83754
1001.44897	0.83905
999.39682	0.83327
997.34467	0.82001
995.29252	0.79904
993.24037	0.77111
991.18822	0.73907
989.13607	0.70779
987.08392	0.68276
985.03177	0.66841
982.97963	0.66729
980.92748	0.67958
978.87533	0.70299
976.82318	0.73377
974.77103	0.76780
972.71888	0.80110
970.66673	0.83067
968.61458	0.85488
966.56243	0.87329
964.51028	0.88628
962.45813	0.89437
960.40598	0.89872
958.35383	0.90052
956.30168	0.89970
954.24953	0.89493
952.19738	0.88456
950.14523	0.86772
948.09308	0.84537
946.04093	0.82058
943.98878	0.79787
941.93663	0.78150
939.88449	0.77369
937.83234	0.77427
935.78019	0.78064
933.72804	0.78796
931.67589	0.79124
929.62374	0.78732
927.57159	0.77634
925.51944	0.76164
923.46729	0.74739
921.41514	0.73763
919.36299	0.73570
917.31084	0.74322
915.25869	0.76031
913.20654	0.78516
911.15439	0.81452
909.10224	0.84500
907.05009	0.87392
904.99794	0.89955
902.94579	0.92113
900.89364	0.93873
898.84149	0.95278
896.78935	0.96383
894.73720	0.97230
892.68505	0.97855
890.63290	0.98309
888.58075	0.98669
886.52860	0.98944
884.47645	0.99063
882.42430	0.99035
880.37215	0.98902
878.32000	0.98649
876.26785	0.98299
874.21570	0.97919
872.16355	0.97562
870.11140	0.97292
868.05925	0.97224
866.00710	0.97469
863.95495	0.97989
861.90280	0.98611
859.85065	0.99192
857.79850	0.99665
855.74635	0.99947
853.69420	1.00000
851.64206	0.99949
849.58991	0.99915
847.53776	0.99909
845.48561	0.99905
843.43346	0.99929
841.38131	0.99977
839.32916	1.00000
837.27701	0.99969
835.22486	0.99868
833.17271	0.99695
831.12056	0.99411
829.06841	0.99004
827.01626	0.98537
824.96411	0.98080
822.91196	0.97629
820.85981	0.97164
818.80766	0.96747
816.75551	0.96439
814.70336	0.96195
812.65121	0.95987
810.59906	0.95828
808.54692	0.95686
806.49477	0.95483
804.44262	0.95150
802.39047	0.94751
800.33832	0.94389
798.28617	0.94025
796.23402	0.93584
794.18187	0.93054
792.12972	0.92470
790.07757	0.91919
788.02542	0.91444
785.97327	0.91017
783.92112	0.90632
781.86897	0.90338
779.81682	0.90224
777.76467	0.90299
775.71252	0.90467
773.66037	0.90659
771.60822	0.90836
769.55607	0.90922
767.50392	0.90893
765.45178	0.90803
763.39963	0.90673
761.34748	0.90507
759.29533	0.90334
757.24318	0.90168
755.19103	0.90017
753.13888	0.89877
751.08673	0.89720
749.03458	0.89562
746.98243	0.89420
744.93028	0.89267
742.87813	0.89078
740.82598	0.88826
738.77383	0.88545
736.72168	0.88305
734.66953	0.88091
732.61738	0.87880
730.56523	0.87634
728.51308	0.87311
726.46093	0.86981
724.40878	0.86727
722.35663	0.86481
720.30449	0.86171
718.25234	0.85890
716.20019	0.85651
714.14804	0.85360
712.09589	0.85021
710.04374	0.84677
707.99159	0.84298
705.93944	0.83908
703.88729	0.83611
701.83514	0.83408
699.78299	0.83159
697.73084	0.82796
695.67869	0.82434
693.62654	0.82170
691.57439	0.81942
689.52224	0.81683
687.47009	0.81394
685.41794	0.81064
683.36579	0.80748
681.31364	0.80504
679.26149	0.80262
677.20935	0.79995
675.15720	0.79757
673.10505	0.79560
671.05290	0.79376
669.00075	0.79115
666.94860	0.78813
664.89645	0.78653
662.84430	0.78495
660.79215	0.78259
658.74000	0.78053
656.68785	0.77941
654.63570	0.77823
652.58355	0.77613
650.53140	0.77374
648.47925	0.77158
646.42710	0.76961
644.37495	0.76818
642.32280	0.76747
640.27065	0.76653
638.21850	0.76495
636.16635	0.76323
634.11421	0.76140
632.06206	0.75949
630.00991	0.75783
627.95776	0.75640
625.90561	0.75580
623.85346	0.75620
621.80131	0.75634
619.74916	0.75612
617.69701	0.75640
615.64486	0.75727
613.59271	0.75879
611.54056	0.76057
609.48841	0.76186
607.43626	0.76273
605.38411	0.76332
603.33196	0.76371
601.27981	0.76426
599.22766	0.76482
597.17551	0.76552
595.12336	0.76696
593.07121	0.76839
591.01906	0.76880
588.96692	0.76906
586.91477	0.76950
584.86262	0.76982
582.81047	0.77111
580.75832	0.77298
578.70617	0.77443
576.65402	0.77637
574.60187	0.77879
572.54972	0.78108
570.49757	0.78353
568.44542	0.78628
566.39327	0.78917
564.34112	0.79223
562.28897	0.79549
560.23682	0.79870
558.18467	0.80165
556.13252	0.80420
554.08037	0.80705
552.02822	0.81032
549.97607	0.81236
547.92392	0.81296
545.87178	0.81357
543.81963	0.81404
541.76748	0.81314
539.71533	0.80992
537.66318	0.80344
535.61103	0.79394
533.55888	0.78230
531.50673	0.76904
529.45458	0.75654
527.40243	0.74812
525.35028	0.74658
523.29813	0.75264
521.24598	0.76331
519.19383	0.77697
517.14168	0.79258
515.08953	0.80620
513.03738	0.81675
510.98523	0.82558
508.93308	0.83217
506.88093	0.83739
504.82878	0.84328
502.77664	0.85007
500.72449	0.85710
498.67234	0.86346
496.62019	0.86865
494.56804	0.87353
492.51589	0.87824
490.46374	0.88201
488.41159	0.88526
486.35944	0.88855
484.30729	0.89194
482.25514	0.89522
480.20299	0.89875
478.15084	0.90354
476.09869	0.91048
474.04654	0.91962
471.99439	0.92875
469.94224	0.93533
467.89009	0.94009
465.83794	0.94427
463.78579	0.94872
461.73364	0.95272
459.68149	0.95555
457.62935	0.95927
455.57720	0.96254
453.52505	0.96196
451.47290	0.95849
449.42075	0.95595
447.36860	0.95529
445.31645	0.95448
443.26430	0.95332
441.21215	0.95250
439.16000	0.95179
437.10785	0.95046
435.05570	0.94852
433.00355	0.94643
430.95140	0.94421
428.89925	0.94389
426.84710	0.94794
424.79495	0.95367
422.74280	0.95882
420.69065	0.96704
418.63850	0.97627
416.58635	0.97924
414.53421	0.98055
412.48206	0.98372
410.42991	0.98793
408.37776	0.98751
406.32561	0.98329
404.27346	0.98418
402.22131	0.98974
400.16916	0.99480
398.11701	1.00000
