3997.58729	0.99968
3995.53514	0.99947
3993.48299	0.99932
3991.43084	0.99917
3989.37869	0.99897
3987.32654	0.99890
3985.27439	0.99904
3983.22224	0.99920
3981.17009	0.99939
3979.11794	0.99948
3977.06579	0.99939
3975.01364	0.99944
3972.96149	0.99958
3970.90934	0.99974
3968.85719	0.99992
3966.80504	0.99991
3964.75289	0.99975
3962.70074	0.99954
3960.64859	0.99944
3958.59645	0.99957
3956.54430	0.99970
3954.49215	0.99980
3952.44000	0.99991
3950.38785	1.00002
3948.33570	1.00000
3946.28355	0.99994
3944.23140	1.00000
3942.17925	1.00003
3940.12710	1.00000
3938.07495	1.00000
3936.02280	0.99990
3933.97065	0.99981
3931.91850	0.99980
3929.86635	0.99966
3927.81420	0.99949
3925.76205	0.99942
3923.70990	0.99925
3921.65775	0.99913
3919.60560	0.99921
3917.55345	0.99921
3915.50131	0.99924
3913.44916	0.99949
3911.39701	0.99975
3909.34486	0.99984
3907.29271	0.99970
3905.24056	0.99952
3903.18841	0.99945
3901.13626	0.99953
3899.08411	0.99990
3897.03196	1.00000
3894.97981	0.99956
3892.92766	0.99911
3890.87551	0.99907
3888.82336	0.99909
3886.77121	0.99901
3884.71906	0.99898
3882.66691	0.99892
3880.61476	0.99891
3878.56261	0.99900
3876.51046	0.99897
3874.45831	0.99890
3872.40616	0.99890
3870.35402	0.99895
3868.30187	0.99918
3866.24972	0.99932
3864.19757	0.99940
3862.14542	0.99957
3860.09327	0.99951
3858.04112	0.99939
3855.98897	0.99963
3853.93682	0.99988
3851.88467	0.99940
3849.83252	0.99903
3847.78037	0.99899
3845.72822	0.99886
3843.67607	0.99871
3841.62392	0.99907
3839.57177	0.99984
3837.51962	1.00000
3835.46747	0.99957
3833.41532	0.99925
3831.36317	0.99900
3829.31102	0.99896
3827.25888	0.99916
3825.20673	0.99920
3823.15458	0.99905
3821.10243	0.99893
3819.05028	0.99889
3816.99813	0.99878
3814.94598	0.99882
3812.89383	0.99892
3810.84168	0.99876
3808.78953	0.99875
3806.73738	0.99914
3804.68523	0.99945
3802.63308	0.99965
3800.58093	0.99977
3798.52878	0.99978
3796.47663	0.99969
3794.42448	0.99943
3792.37233	0.99927
3790.32018	0.99922
3788.26803	0.99908
3786.21588	0.99900
3784.16374	0.99930
3782.11159	0.99969
3780.05944	0.99947
3778.00729	0.99900
3775.95514	0.99894
3773.90299	0.99921
3771.85084	0.99968
3769.79869	1.00000
3767.74654	0.99986
3765.69439	0.99948
3763.64224	0.99918
3761.59009	0.99924
3759.53794	0.99945
3757.48579	0.99937
3755.43364	0.99916
3753.38149	0.99906
3751.32934	0.99897
3749.27719	0.99893
3747.22504	0.99922
3745.17289	0.99957
3743.12074	0.99923
3741.06859	0.99879
3739.01645	0.99888
3736.96430	0.99919
3734.91215	0.99962
3732.86000	1.00001
3730.80785	0.99997
3728.75570	0.99970
3726.70355	0.99947
3724.65140	0.99933
3722.59925	0.99916
3720.54710	0.99894
3718.49495	0.99871
3716.44280	0.99841
3714.39065	0.99824
3712.33850	0.99836
3710.28635	0.99866
3708.23420	0.99879
3706.18205	0.99879
3704.12990	0.99891
3702.07775	0.99899
3700.02560	0.99863
3697.97345	0.99803
3695.92131	0.99771
3693.86916	0.99769
3691.81701	0.99755
3689.76486	0.99735
3687.71271	0.99752
3685.66056	0.99747
3683.60841	0.99703
3681.55626	0.99660
3679.50411	0.99633
3677.45196	0.99612
3675.39981	0.99586
3673.34766	0.99563
3671.29551	0.99535
3669.24336	0.99482
3667.19121	0.99437
3665.13906	0.99421
3663.08691	0.99405
3661.03476	0.99383
3658.98261	0.99354
3656.93046	0.99296
3654.87831	0.99239
3652.82617	0.99212
3650.77402	0.99178
3648.72187	0.99138
3646.66972	0.99091
3644.61757	0.99011
3642.56542	0.98918
3640.51327	0.98834
3638.46112	0.98785
3636.40897	0.98755
3634.35682	0.98702
3632.30467	0.98640
3630.25252	0.98560
3628.20037	0.98421
3626.14822	0.98306
3624.09607	0.98230
3622.04392	0.98171
3619.99177	0.98104
3617.93962	0.97990
3615.88747	0.97921
3613.83532	0.97879
3611.78317	0.97756
3609.73102	0.97606
3607.67888	0.97496
3605.62673	0.97410
3603.57458	0.97319
3601.52243	0.97212
3599.47028	0.97110
3597.41813	0.97009
3595.36598	0.96891
3593.31383	0.96768
3591.26168	0.96633
3589.20953	0.96471
3587.15738	0.96317
3585.10523	0.96202
3583.05308	0.96079
3581.00093	0.95910
3578.94878	0.95724
3576.89663	0.95545
3574.84448	0.95376
3572.79233	0.95238
3570.74018	0.95123
3568.68803	0.94968
3566.63588	0.94706
3564.58374	0.94444
3562.53159	0.94263
3560.47944	0.94084
3558.42729	0.93869
3556.37514	0.93657
3554.32299	0.93447
3552.27084	0.93201
3550.21869	0.92957
3548.16654	0.92758
3546.11439	0.92570
3544.06224	0.92362
3542.01009	0.92122
3539.95794	0.91850
3537.90579	0.91587
3535.85364	0.91337
3533.80149	0.91065
3531.74934	0.90785
3529.69719	0.90525
3527.64504	0.90264
3525.59289	0.89965
3523.54074	0.89646
3521.48860	0.89350
3519.43645	0.89083
3517.38430	0.88821
3515.33215	0.88548
3513.28000	0.88234
3511.22785	0.87908
3509.17570	0.87601
3507.12355	0.87309
3505.07140	0.87040
3503.01925	0.86753
3500.96710	0.86433
3498.91495	0.86112
3496.86280	0.85787
3494.81065	0.85468
3492.75850	0.85180
3490.70635	0.84899
3488.65420	0.84594
3486.60205	0.84264
3484.54990	0.83947
3482.49775	0.83649
3480.44560	0.83348
3478.39345	0.83049
3476.34131	0.82749
3474.28916	0.82433
3472.23701	0.82117
3470.18486	0.81813
3468.13271	0.81505
3466.08056	0.81188
3464.02841	0.80874
3461.97626	0.80577
3459.92411	0.80272
3457.87196	0.79947
3455.81981	0.79619
3453.76766	0.79290
3451.71551	0.78963
3449.66336	0.78638
3447.61121	0.78298
3445.55906	0.77962
3443.50691	0.77654
3441.45476	0.77355
3439.40261	0.77054
3437.35046	0.76735
3435.29831	0.76390
3433.24617	0.76058
3431.19402	0.75762
3429.14187	0.75464
3427.08972	0.75127
3425.03757	0.74790
3422.98542	0.74481
3420.93327	0.74176
3418.88112	0.73868
3416.82897	0.73571
3414.77682	0.73291
3412.72467	0.73011
3410.67252	0.72708
3408.62037	0.72401
3406.56822	0.72118
3404.51607	0.71837
3402.46392	0.71558
3400.41177	0.71290
3398.35962	0.71014
3396.30747	0.70735
3394.25532	0.70466
3392.20317	0.70188
3390.15103	0.69911
3388.09888	0.69649
3386.04673	0.69402
3383.99458	0.69161
3381.94243	0.68929
3379.89028	0.68717
3377.83813	0.68495
3375.78598	0.68246
3373.73383	0.68008
3371.68168	0.67811
3369.62953	0.67638
3367.57738	0.67448
3365.52523	0.67240
3363.47308	0.67056
3361.42093	0.66879
3359.36878	0.66681
3357.31663	0.66493
3355.26448	0.66334
3353.21233	0.66193
3351.16018	0.66059
3349.10803	0.65925
3347.05588	0.65793
3345.00374	0.65671
3342.95159	0.65550
3340.89944	0.65428
3338.84729	0.65319
3336.79514	0.65226
3334.74299	0.65144
3332.69084	0.65061
3330.63869	0.64979
3328.58654	0.64913
3326.53439	0.64861
3324.48224	0.64805
3322.43009	0.64756
3320.37794	0.64737
3318.32579	0.64709
3316.27364	0.64668
3314.22149	0.64654
3312.16934	0.64662
3310.11719	0.64671
3308.06504	0.64677
3306.01289	0.64702
3303.96074	0.64748
3301.90860	0.64776
3299.85645	0.64784
3297.80430	0.64797
3295.75215	0.64832
3293.70000	0.64878
3291.64785	0.64919
3289.59570	0.64972
3287.54355	0.65057
3285.49140	0.65135
3283.43925	0.65182
3281.38710	0.65248
3279.33495	0.65355
3277.28280	0.65469
3275.23065	0.65585
3273.17850	0.65717
3271.12635	0.65840
3269.07420	0.65942
3267.02205	0.66042
3264.96990	0.66150
3262.91775	0.66279
3260.86560	0.66439
3258.81346	0.66619
3256.76131	0.66811
3254.70916	0.67000
3252.65701	0.67179
3250.60486	0.67348
3248.55271	0.67520
3246.50056	0.67722
3244.44841	0.67933
3242.39626	0.68132
3240.34411	0.68352
3238.29196	0.68605
3236.23981	0.68868
3234.18766	0.69122
3232.13551	0.69352
3230.08336	0.69584
3228.03121	0.69843
3225.97906	0.70109
3223.92691	0.70378
3221.87476	0.70656
3219.82261	0.70939
3217.77046	0.71221
3215.71832	0.71512
3213.66617	0.71808
3211.61402	0.72084
3209.56187	0.72361
3207.50972	0.72682
3205.45757	0.73028
3203.40542	0.73362
3201.35327	0.73676
3199.30112	0.73994
3197.24897	0.74336
3195.19682	0.74681
3193.14467	0.75004
3191.09252	0.75321
3189.04037	0.75645
3186.98822	0.75964
3184.93607	0.76298
3182.88392	0.76654
3180.83177	0.76998
3178.77962	0.77334
3176.72747	0.77679
3174.67532	0.78018
3172.62317	0.78355
3170.57103	0.78690
3168.51888	0.78999
3166.46673	0.79296
3164.41458	0.79612
3162.36243	0.79951
3160.31028	0.80306
3158.25813	0.80649
3156.20598	0.80969
3154.15383	0.81287
3152.10168	0.81592
3150.04953	0.81879
3147.99738	0.82178
3145.94523	0.82483
3143.89308	0.82789
3141.84093	0.83100
3139.78878	0.83402
3137.73663	0.83685
3135.68448	0.83951
3133.63233	0.84213
3131.58018	0.84498
3129.52803	0.84793
3127.47589	0.85058
3125.42374	0.85292
3123.37159	0.85547
3121.31944	0.85843
3119.26729	0.86130
3117.21514	0.86379
3115.16299	0.86618
3113.11084	0.86858
3111.05869	0.87100
3109.00654	0.87342
3106.95439	0.87558
3104.90224	0.87755
3102.85009	0.87974
3100.79794	0.88200
3098.74579	0.88414
3096.69364	0.88640
3094.64149	0.88863
3092.58934	0.89058
3090.53719	0.89256
3088.48504	0.89467
3086.43289	0.89664
3084.38075	0.89836
3082.32860	0.89991
3080.27645	0.90151
3078.22430	0.90326
3076.17215	0.90496
3074.12000	0.90659
3072.06785	0.90835
3070.01570	0.91012
3067.96355	0.91169
3065.91140	0.91313
3063.85925	0.91457
3061.80710	0.91585
3059.75495	0.91693
3057.70280	0.91819
3055.65065	0.91983
3053.59850	0.92142
3051.54635	0.92272
3049.49420	0.92390
3047.44205	0.92500
3045.38990	0.92606
3043.33775	0.92719
3041.28560	0.92828
3039.23346	0.92922
3037.18131	0.93005
3035.12916	0.93090
3033.07701	0.93177
3031.02486	0.93264
3028.97271	0.93347
3026.92056	0.93428
3024.86841	0.93503
3022.81626	0.93563
3020.76411	0.93621
3018.71196	0.93673
3016.65981	0.93713
3014.60766	0.93751
3012.55551	0.93772
3010.50336	0.93782
3008.45121	0.93813
3006.39906	0.93836
3004.34691	0.93810
3002.29476	0.93758
3000.24261	0.93703
2998.19046	0.93642
2996.13832	0.93555
2994.08617	0.93430
2992.03402	0.93261
2989.98187	0.93023
2987.92972	0.92689
2985.87757	0.92278
2983.82542	0.91797
2981.77327	0.91212
2979.72112	0.90501
2977.66897	0.89662
2975.61682	0.88700
2973.56467	0.87647
2971.51252	0.86549
2969.46037	0.85423
2967.40822	0.84270
2965.35607	0.83119
2963.30392	0.82002
2961.25177	0.80921
2959.19962	0.79871
2957.14747	0.78838
2955.09532	0.77808
2953.04318	0.76825
2950.99103	0.75954
2948.93888	0.75230
2946.88673	0.74696
2944.83458	0.74389
2942.78243	0.74297
2940.73028	0.74377
2938.67813	0.74556
2936.62598	0.74748
2934.57383	0.74938
2932.52168	0.75162
2930.46953	0.75433
2928.41738	0.75770
2926.36523	0.76195
2924.31308	0.76691
2922.26093	0.77203
2920.20878	0.77710
2918.15663	0.78211
2916.10448	0.78675
2914.05233	0.79084
2912.00018	0.79438
2909.94803	0.79724
2907.89589	0.79918
2905.84374	0.79991
2903.79159	0.79928
2901.73944	0.79713
2899.68729	0.79337
2897.63514	0.78813
2895.58299	0.78158
2893.53084	0.77395
2891.47869	0.76557
2889.42654	0.75692
2887.37439	0.74863
2885.32224	0.74124
2883.27009	0.73512
2881.21794	0.73040
2879.16579	0.72717
2877.11364	0.72548
2875.06149	0.72536
2873.00934	0.72680
2870.95719	0.72950
2868.90504	0.73344
2866.85289	0.73876
2864.80075	0.74523
2862.74860	0.75231
2860.69645	0.75963
2858.64430	0.76720
2856.59215	0.77504
2854.54000	0.78307
2852.48785	0.79137
2850.43570	0.79991
2848.38355	0.80881
2846.33140	0.81794
2844.27925	0.82678
2842.22710	0.83496
2840.17495	0.84239
2838.12280	0.84912
2836.07065	0.85524
2834.01850	0.86075
2831.96635	0.86582
2829.91420	0.87054
2827.86205	0.87478
2825.80990	0.87860
2823.75775	0.88223
2821.70561	0.88574
2819.65346	0.88881
2817.60131	0.89141
2815.54916	0.89395
2813.49701	0.89654
2811.44486	0.89900
2809.39271	0.90125
2807.34056	0.90347
2805.28841	0.90578
2803.23626	0.90807
2801.18411	0.91031
2799.13196	0.91273
2797.07981	0.91535
2795.02766	0.91785
2792.97551	0.92013
2790.92336	0.92231
2788.87121	0.92442
2786.81906	0.92650
2784.76691	0.92849
2782.71476	0.93002
2780.66261	0.93112
2778.61046	0.93221
2776.55832	0.93337
2774.50617	0.93446
2772.45402	0.93545
2770.40187	0.93630
2768.34972	0.93697
2766.29757	0.93752
2764.24542	0.93804
2762.19327	0.93852
2760.14112	0.93896
2758.08897	0.93932
2756.03682	0.93971
2753.98467	0.94032
2751.93252	0.94109
2749.88037	0.94178
2747.82822	0.94221
2745.77607	0.94247
2743.72392	0.94282
2741.67177	0.94339
2739.61962	0.94406
2737.56747	0.94460
2735.51532	0.94504
2733.46318	0.94563
2731.41103	0.94635
2729.35888	0.94708
2727.30673	0.94776
2725.25458	0.94847
2723.20243	0.94929
2721.15028	0.95023
2719.09813	0.95127
2717.04598	0.95233
2714.99383	0.95333
2712.94168	0.95437
2710.88953	0.95541
2708.83738	0.95629
2706.78523	0.95710
2704.73308	0.95797
2702.68093	0.95885
2700.62878	0.95960
2698.57663	0.96015
2696.52448	0.96066
2694.47233	0.96123
2692.42018	0.96181
2690.36804	0.96240
2688.31589	0.96296
2686.26374	0.96347
2684.21159	0.96408
2682.15944	0.96479
2680.10729	0.96546
2678.05514	0.96605
2676.00299	0.96656
2673.95084	0.96697
2671.89869	0.96735
2669.84654	0.96769
2667.79439	0.96793
2665.74224	0.96813
2663.69009	0.96835
2661.63794	0.96863
2659.58579	0.96899
2657.53364	0.96946
2655.48149	0.96988
2653.42934	0.97002
2651.37719	0.97009
2649.32504	0.97039
2647.27289	0.97085
2645.22075	0.97123
2643.16860	0.97147
2641.11645	0.97168
2639.06430	0.97202
2637.01215	0.97243
2634.96000	0.97269
2632.90785	0.97289
2630.85570	0.97345
2628.80355	0.97420
2626.75140	0.97454
2624.69925	0.97463
2622.64710	0.97492
2620.59495	0.97533
2618.54280	0.97561
2616.49065	0.97582
2614.43850	0.97603
2612.38635	0.97626
2610.33420	0.97651
2608.28205	0.97667
2606.22990	0.97682
2604.17775	0.97716
2602.12561	0.97766
2600.07346	0.97824
2598.02131	0.97878
2595.96916	0.97904
2593.91701	0.97915
2591.86486	0.97941
2589.81271	0.97978
2587.76056	0.98004
2585.70841	0.98033
2583.65626	0.98099
2581.60411	0.98166
2579.55196	0.98180
2577.49981	0.98158
2575.44766	0.98154
2573.39551	0.98179
2571.34336	0.98207
2569.29121	0.98235
2567.23906	0.98252
2565.18691	0.98258
2563.13476	0.98270
2561.08261	0.98292
2559.03047	0.98302
2556.97832	0.98284
2554.92617	0.98266
2552.87402	0.98296
2550.82187	0.98330
2548.76972	0.98316
2546.71757	0.98295
2544.66542	0.98301
2542.61327	0.98332
2540.56112	0.98361
2538.50897	0.98353
2536.45682	0.98344
2534.40467	0.98355
2532.35252	0.98385
2530.30037	0.98419
2528.24822	0.98425
2526.19607	0.98417
2524.14392	0.98408
2522.09177	0.98394
2520.03962	0.98413
2517.98747	0.98451
2515.93532	0.98453
2513.88318	0.98431
2511.83103	0.98416
2509.77888	0.98424
2507.72673	0.98455
2505.67458	0.98498
2503.62243	0.98537
2501.57028	0.98560
2499.51813	0.98570
2497.46598	0.98578
2495.41383	0.98591
2493.36168	0.98608
2491.30953	0.98627
2489.25738	0.98662
2487.20523	0.98695
2485.15308	0.98695
2483.10093	0.98693
2481.04878	0.98735
2478.99663	0.98773
2476.94448	0.98789
2474.89233	0.98834
2472.84018	0.98869
2470.78804	0.98844
2468.73589	0.98825
2466.68374	0.98862
2464.63159	0.98908
2462.57944	0.98923
2460.52729	0.98947
2458.47514	0.98995
2456.42299	0.99018
2454.37084	0.99010
2452.31869	0.99009
2450.26654	0.99030
2448.21439	0.99043
2446.16224	0.99052
2444.11009	0.99096
2442.05794	0.99152
2440.00579	0.99154
2437.95364	0.99113
2435.90149	0.99100
2433.84934	0.99118
2431.79719	0.99137
2429.74504	0.99156
2427.69290	0.99161
2425.64075	0.99143
2423.58860	0.99132
2421.53645	0.99135
2419.48430	0.99148
2417.43215	0.99173
2415.38000	0.99193
2413.32785	0.99189
2411.27570	0.99164
2409.22355	0.99151
2407.17140	0.99176
2405.11925	0.99227
2403.06710	0.99269
2401.01495	0.99274
2398.96280	0.99268
2396.91065	0.99258
2394.85850	0.99241
2392.80635	0.99266
2390.75420	0.99299
2388.70205	0.99280
2386.64990	0.99247
2384.59775	0.99253
2382.54561	0.99291
2380.49346	0.99324
2378.44131	0.99330
2376.38916	0.99327
2374.33701	0.99339
2372.28486	0.99378
2370.23271	0.99399
2368.18056	0.99354
2366.12841	0.99305
2364.07626	0.99309
2362.02411	0.99326
2359.97196	0.99328
2357.91981	0.99330
2355.86766	0.99339
2353.81551	0.99339
2351.76336	0.99335
2349.71121	0.99347
2347.65906	0.99364
2345.60691	0.99365
2343.55476	0.99332
2341.50261	0.99300
2339.45047	0.99327
2337.39832	0.99378
2335.34617	0.99395
2333.29402	0.99395
2331.24187	0.99392
2329.18972	0.99386
2327.13757	0.99362
2325.08542	0.99336
2323.03327	0.99342
2320.98112	0.99372
2318.92897	0.99413
2316.87682	0.99447
2314.82467	0.99468
2312.77252	0.99472
2310.72037	0.99446
2308.66822	0.99408
2306.61607	0.99383
2304.56392	0.99378
2302.51177	0.99383
2300.45962	0.99405
2298.40747	0.99462
2296.35533	0.99500
2294.30318	0.99471
2292.25103	0.99422
2290.19888	0.99418
2288.14673	0.99462
2286.09458	0.99495
2284.04243	0.99482
2281.99028	0.99453
2279.93813	0.99445
2277.88598	0.99470
2275.83383	0.99511
2273.78168	0.99517
2271.72953	0.99475
2269.67738	0.99465
2267.62523	0.99505
2265.57308	0.99536
2263.52093	0.99532
2261.46878	0.99488
2259.41663	0.99448
2257.36448	0.99464
2255.31233	0.99511
2253.26018	0.99544
2251.20804	0.99574
2249.15589	0.99618
2247.10374	0.99631
2245.05159	0.99597
2242.99944	0.99595
2240.94729	0.99648
2238.89514	0.99684
2236.84299	0.99627
2234.79084	0.99511
2232.73869	0.99475
2230.68654	0.99540
2228.63439	0.99570
2226.58224	0.99507
2224.53009	0.99432
2222.47794	0.99444
2220.42579	0.99541
2218.37364	0.99611
2216.32149	0.99628
2214.26934	0.99693
2212.21719	0.99778
2210.16504	0.99776
2208.11290	0.99706
2206.06075	0.99649
2204.00860	0.99603
2201.95645	0.99507
2199.90430	0.99419
2197.85215	0.99428
2195.80000	0.99496
2193.74785	0.99542
2191.69570	0.99598
2189.64355	0.99730
2187.59140	0.99821
2185.53925	0.99762
2183.48710	0.99651
2181.43495	0.99616
2179.38280	0.99625
2177.33065	0.99608
2175.27850	0.99606
2173.22635	0.99642
2171.17420	0.99652
2169.12205	0.99622
2167.06990	0.99655
2165.01776	0.99746
2162.96561	0.99761
2160.91346	0.99750
2158.86131	0.99787
2156.80916	0.99780
2154.75701	0.99774
2152.70486	0.99796
2150.65271	0.99813
2148.60056	0.99797
2146.54841	0.99707
2144.49626	0.99618
2142.44411	0.99604
2140.39196	0.99620
2138.33981	0.99599
2136.28766	0.99553
2134.23551	0.99524
2132.18336	0.99558
2130.13121	0.99627
2128.07906	0.99633
2126.02691	0.99613
2123.97476	0.99607
2121.92262	0.99583
2119.87047	0.99570
2117.81832	0.99582
2115.76617	0.99601
2113.71402	0.99619
2111.66187	0.99632
2109.60972	0.99640
2107.55757	0.99618
2105.50542	0.99607
2103.45327	0.99640
2101.40112	0.99642
2099.34897	0.99612
2097.29682	0.99600
2095.24467	0.99608
2093.19252	0.99634
2091.14037	0.99635
2089.08822	0.99600
2087.03607	0.99623
2084.98392	0.99716
2082.93177	0.99736
2080.87962	0.99676
2078.82747	0.99644
2076.77533	0.99656
2074.72318	0.99658
2072.67103	0.99638
2070.61888	0.99660
2068.56673	0.99714
2066.51458	0.99712
2064.46243	0.99656
2062.41028	0.99606
2060.35813	0.99524
2058.30598	0.99426
2056.25383	0.99454
2054.20168	0.99590
2052.14953	0.99709
2050.09738	0.99773
2048.04523	0.99773
2045.99308	0.99746
2043.94093	0.99774
2041.88878	0.99810
2039.83663	0.99718
2037.78448	0.99560
2035.73233	0.99508
2033.68019	0.99551
2031.62804	0.99594
2029.57589	0.99650
2027.52374	0.99749
2025.47159	0.99895
2023.41944	0.99993
2021.36729	0.99975
2019.31514	0.99950
2017.26299	0.99949
2015.21084	0.99913
2013.15869	0.99836
2011.10654	0.99752
2009.05439	0.99663
2007.00224	0.99595
2004.95009	0.99620
2002.89794	0.99708
2000.84579	0.99768
1998.79364	0.99794
1996.74149	0.99760
1994.68934	0.99628
1992.63719	0.99625
1990.58505	0.99846
1988.53290	1.00000
1986.48075	0.99993
1984.42860	0.99894
1982.37645	0.99853
1980.32430	0.99904
1978.27215	0.99880
1976.22000	0.99879
1974.16785	0.99915
1972.11570	0.99835
1970.06355	0.99781
1968.01140	0.99847
1965.95925	0.99914
1963.90710	0.99894
1961.85495	0.99889
1959.80280	0.99967
1957.75065	0.99969
1955.69850	0.99862
1953.64635	0.99766
1951.59420	0.99734
1949.54205	0.99798
1947.48990	0.99890
1945.43776	0.99902
1943.38561	0.99890
1941.33346	0.99870
1939.28131	0.99801
1937.22916	0.99755
1935.17701	0.99736
1933.12486	0.99721
1931.07271	0.99733
1929.02056	0.99766
1926.96841	0.99812
1924.91626	0.99832
1922.86411	0.99833
1920.81196	0.99874
1918.75981	0.99910
1916.70766	0.99902
1914.65551	0.99891
1912.60336	0.99910
1910.55121	0.99952
1908.49906	0.99973
1906.44691	0.99952
1904.39476	0.99941
1902.34262	0.99946
1900.29047	0.99926
1898.23832	0.99901
1896.18617	0.99885
1894.13402	0.99875
1892.08187	0.99914
1890.02972	0.99978
1887.97757	1.00000
1885.92542	0.99993
1883.87327	0.99973
1881.82112	0.99950
1879.76897	0.99943
1877.71682	0.99922
1875.66467	0.99887
1873.61252	0.99876
1871.56037	0.99904
1869.50822	0.99955
1867.45607	0.99970
1865.40392	0.99938
1863.35177	0.99913
1861.29962	0.99921
1859.24748	0.99931
1857.19533	0.99922
1855.14318	0.99921
1853.09103	0.99955
1851.03888	0.99992
1848.98673	1.00003
1846.93458	0.99993
1844.88243	0.99970
1842.83028	0.99950
1840.77813	0.99956
1838.72598	0.99977
1836.67383	1.00000
1834.62168	1.00007
1832.56953	0.99976
1830.51738	0.99933
1828.46523	0.99917
1826.41308	0.99921
1824.36093	0.99951
1822.30878	1.00004
1820.25663	1.00044
1818.20448	1.00042
1816.15233	1.00026
1814.10019	1.00028
1812.04804	1.00025
1809.99589	1.00011
1807.94374	0.99996
1805.89159	0.99997
1803.83944	1.00019
1801.78729	1.00026
1799.73514	1.00013
1797.68299	1.00017
1795.63084	1.00033
1793.57869	1.00040
1791.52654	1.00016
1789.47439	0.99988
1787.42224	0.99991
1785.37009	1.00013
1783.31794	1.00018
1781.26579	1.00000
1779.21364	0.99989
1777.16149	0.99997
1775.10934	1.00014
1773.05719	1.00023
1771.00505	1.00017
1768.95290	1.00000
1766.90075	0.99975
1764.84860	0.99954
1762.79645	0.99949
1760.74430	0.99958
1758.69215	0.99958
1756.64000	0.99943
1754.58785	0.99938
1752.53570	0.99945
1750.48355	0.99938
1748.43140	0.99922
1746.37925	0.99905
1744.32710	0.99871
1742.27495	0.99838
1740.22280	0.99809
1738.17065	0.99790
1736.11850	0.99806
1734.06635	0.99796
1732.01420	0.99732
1729.96205	0.99696
1727.90991	0.99680
1725.85776	0.99665
1723.80561	0.99636
1721.75346	0.99595
1719.70131	0.99565
1717.64916	0.99527
1715.59701	0.99454
1713.54486	0.99394
1711.49271	0.99343
1709.44056	0.99287
1707.38841	0.99226
1705.33626	0.99146
1703.28411	0.99077
1701.23196	0.99012
1699.17981	0.98910
1697.12766	0.98813
1695.07551	0.98713
1693.02336	0.98609
1690.97121	0.98498
1688.91906	0.98358
1686.86691	0.98209
1684.81476	0.97992
1682.76262	0.97766
1680.71047	0.97659
1678.65832	0.97562
1676.60617	0.97428
1674.55402	0.97264
1672.50187	0.97124
1670.44972	0.96997
1668.39757	0.96884
1666.34542	0.96833
1664.29327	0.96807
1662.24112	0.96789
1660.18897	0.96798
1658.13682	0.96823
1656.08467	0.96861
1654.03252	0.96943
1651.98037	0.97056
1649.92822	0.97138
1647.87607	0.97228
1645.82392	0.97333
1643.77177	0.97424
1641.71962	0.97514
1639.66748	0.97622
1637.61533	0.97753
1635.56318	0.97926
1633.51103	0.98092
1631.45888	0.98212
1629.40673	0.98327
1627.35458	0.98463
1625.30243	0.98609
1623.25028	0.98749
1621.19813	0.98865
1619.14598	0.98968
1617.09383	0.99104
1615.04168	0.99234
1612.98953	0.99308
1610.93738	0.99368
1608.88523	0.99441
1606.83308	0.99519
1604.78093	0.99588
1602.72878	0.99646
1600.67663	0.99692
1598.62448	0.99741
1596.57234	0.99797
1594.52019	0.99842
1592.46804	0.99872
1590.41589	0.99895
1588.36374	0.99912
1586.31159	0.99928
1584.25944	0.99938
1582.20729	0.99945
1580.15514	0.99962
1578.10299	0.99985
1576.05084	0.99990
1573.99869	0.99981
1571.94654	0.99988
1569.89439	0.99985
1567.84224	0.99967
1565.79009	0.99959
1563.73794	0.99964
1561.68579	0.99981
1559.63364	1.00000
1557.58149	0.99991
1555.52934	0.99963
1553.47719	0.99951
1551.42505	0.99951
1549.37290	0.99940
1547.32075	0.99922
1545.26860	0.99921
1543.21645	0.99935
1541.16430	0.99954
1539.11215	0.99900
1537.06000	0.99852
1535.00785	0.99841
1532.95570	0.99823
1530.90355	0.99798
1528.85140	0.99779
1526.79925	0.99746
1524.74710	0.99689
1522.69495	0.99612
1520.64280	0.99532
1518.59065	0.99482
1516.53850	0.99395
1514.48635	0.99290
1512.43420	0.99202
1510.38205	0.99116
1508.32991	0.98984
1506.27776	0.98717
1504.22561	0.98463
1502.17346	0.98265
1500.12131	0.98023
1498.06916	0.97639
1496.01701	0.97011
1493.96486	0.96297
1491.91271	0.95502
1489.86056	0.94331
1487.80841	0.92990
1485.75626	0.91901
1483.70411	0.90997
1481.65196	0.90164
1479.59981	0.89460
1477.54766	0.88958
1475.49551	0.88619
1473.44336	0.88436
1471.39121	0.88458
1469.33906	0.88683
1467.28691	0.89044
1465.23477	0.89517
1463.18262	0.89905
1461.13047	0.90065
1459.07832	0.90050
1457.02617	0.89801
1454.97402	0.89440
1452.92187	0.89135
1450.86972	0.88778
1448.81757	0.88273
1446.76542	0.87634
1444.71327	0.87011
1442.66112	0.86466
1440.60897	0.86056
1438.55682	0.85823
1436.50467	0.85683
1434.45252	0.85577
1432.40037	0.85403
1430.34822	0.85012
1428.29607	0.84457
1426.24392	0.83942
1424.19177	0.83528
1422.13962	0.83321
1420.08748	0.83387
1418.03533	0.83676
1415.98318	0.84055
1413.93103	0.84454
1411.87888	0.84887
1409.82673	0.85337
1407.77458	0.85792
1405.72243	0.86274
1403.67028	0.86745
1401.61813	0.87137
1399.56598	0.87480
1397.51383	0.87746
1395.46168	0.87851
1393.40953	0.87776
1391.35738	0.87580
1389.30523	0.87268
1387.25308	0.86799
1385.20093	0.86296
1383.14878	0.85876
1381.09663	0.85478
1379.04448	0.85083
1376.99234	0.84736
1374.94019	0.84482
1372.88804	0.84377
1370.83589	0.84469
1368.78374	0.84749
1366.73159	0.85160
1364.67944	0.85605
1362.62729	0.86007
1360.57514	0.86254
1358.52299	0.86329
1356.47084	0.86306
1354.41869	0.86262
1352.36654	0.86284
1350.31439	0.86448
1348.26224	0.86768
1346.21009	0.87194
1344.15794	0.87664
1342.10579	0.88130
1340.05364	0.88532
1338.00149	0.88837
1335.94934	0.89087
1333.89720	0.89322
1331.84505	0.89527
1329.79290	0.89713
1327.74075	0.89908
1325.68860	0.90090
1323.63645	0.90247
1321.58430	0.90403
1319.53215	0.90579
1317.48000	0.90791
1315.42785	0.91035
1313.37570	0.91296
1311.32355	0.91568
1309.27140	0.91828
1307.21925	0.92046
1305.16710	0.92196
1303.11495	0.92288
1301.06280	0.92342
1299.01065	0.92353
1296.95850	0.92330
1294.90635	0.92323
1292.85420	0.92381
1290.80205	0.92521
1288.74991	0.92761
1286.69776	0.93126
1284.64561	0.93599
1282.59346	0.94129
1280.54131	0.94655
1278.48916	0.95115
1276.43701	0.95479
1274.38486	0.95749
1272.33271	0.95925
1270.28056	0.96013
1268.22841	0.96036
1266.17626	0.96008
1264.12411	0.95938
1262.07196	0.95840
1260.01981	0.95719
1257.96766	0.95590
1255.91551	0.95475
1253.86336	0.95353
1251.81121	0.95188
1249.75906	0.94996
1247.70691	0.94801
1245.65477	0.94594
1243.60262	0.94387
1241.55047	0.94216
1239.49832	0.94077
1237.44617	0.93970
1235.39402	0.93927
1233.34187	0.93949
1231.28972	0.94022
1229.23757	0.94135
1227.18542	0.94266
1225.13327	0.94383
1223.08112	0.94475
1221.02897	0.94538
1218.97682	0.94566
1216.92467	0.94557
1214.87252	0.94507
1212.82037	0.94437
1210.76822	0.94380
1208.71607	0.94338
1206.66392	0.94295
1204.61177	0.94241
1202.55963	0.94185
1200.50748	0.94134
1198.45533	0.94088
1196.40318	0.94061
1194.35103	0.94085
1192.29888	0.94161
1190.24673	0.94289
1188.19458	0.94474
1186.14243	0.94706
1184.09028	0.94995
1182.03813	0.95346
1179.98598	0.95730
1177.93383	0.96156
1175.88168	0.96642
1173.82953	0.97154
1171.77738	0.97664
1169.72523	0.98165
1167.67308	0.98627
1165.62093	0.99028
1163.56878	0.99387
1161.51663	0.99708
1159.46448	0.99925
1157.41234	1.00000
1155.36019	0.99996
1153.30804	0.99928
1151.25589	0.99771
1149.20374	0.99499
1147.15159	0.99095
1145.09944	0.98571
1143.04729	0.97959
1140.99514	0.97268
1138.94299	0.96483
1136.89084	0.95530
1134.83869	0.94298
1132.78654	0.92720
1130.73439	0.90795
1128.68224	0.88597
1126.63009	0.86265
1124.57794	0.83967
1122.52579	0.81858
1120.47364	0.80022
1118.42149	0.78499
1116.36934	0.77306
1114.31720	0.76405
1112.26505	0.75741
1110.21290	0.75259
1108.16075	0.74877
1106.10860	0.74495
1104.05645	0.74063
1102.00430	0.73612
1099.95215	0.73196
1097.90000	0.72861
1095.84785	0.72641
1093.79570	0.72517
1091.74355	0.72422
1089.69140	0.72255
1087.63925	0.71866
1085.58710	0.71087
1083.53495	0.69789
1081.48280	0.67911
1079.43065	0.65500
1077.37850	0.62701
1075.32635	0.59661
1073.27420	0.56489
1071.22206	0.53248
1069.16991	0.49996
1067.11776	0.46845
1065.06561	0.43952
1063.01346	0.41503
1060.96131	0.39673
1058.90916	0.38560
1056.85701	0.38171
1054.80486	0.38418
1052.75271	0.39155
1050.70056	0.40255
1048.64841	0.41568
1046.59626	0.42911
1044.54411	0.44099
1042.49196	0.44955
1040.43981	0.45366
1038.38766	0.45422
1036.33551	0.45405
1034.28336	0.45626
1032.23121	0.46365
1030.17906	0.47804
1028.12692	0.49977
1026.07477	0.52821
1024.02262	0.56194
1021.97047	0.59893
1019.91832	0.63748
1017.86617	0.67630
1015.81402	0.71392
1013.76187	0.74915
1011.70972	0.78108
1009.65757	0.80854
1007.60542	0.83041
1005.55327	0.84595
1003.50112	0.85479
1001.44897	0.85704
999.39682	0.85286
997.34467	0.84237
995.29252	0.82575
993.24037	0.80346
991.18822	0.77738
989.13607	0.75127
987.08392	0.72999
985.03177	0.71798
982.97963	0.71772
980.92748	0.72886
978.87533	0.74900
976.82318	0.77502
974.77103	0.80331
972.71888	0.83065
970.66673	0.85493
968.61458	0.87483
966.56243	0.88996
964.51028	0.90073
962.45813	0.90761
960.40598	0.91127
958.35383	0.91283
956.30168	0.91258
954.24953	0.90953
952.19738	0.90241
950.14523	0.89009
948.09308	0.87260
946.04093	0.85237
943.98878	0.83333
941.93663	0.81946
939.88449	0.81330
937.83234	0.81442
935.78019	0.81999
933.72804	0.82620
931.67589	0.82891
929.62374	0.82528
927.57159	0.81555
925.51944	0.80256
923.46729	0.78999
921.41514	0.78145
919.36299	0.77971
917.31084	0.78607
915.25869	0.80041
913.20654	0.82128
911.15439	0.84615
909.10224	0.87228
907.05009	0.89733
904.99794	0.91966
902.94579	0.93837
900.89364	0.95324
898.84149	0.96449
896.78935	0.97289
894.73720	0.97925
892.68505	0.98410
890.63290	0.98806
888.58075	0.99152
886.52860	0.99408
884.47645	0.99534
882.42430	0.99512
880.37215	0.99353
878.32000	0.99115
876.26785	0.98824
874.21570	0.98507
872.16355	0.98228
870.11140	0.98037
868.05925	0.97996
866.00710	0.98177
863.95495	0.98577
861.90280	0.99087
859.85065	0.99570
857.79850	0.99931
855.74635	1.00126
853.69420	1.00191
851.64206	1.00194
849.58991	1.00142
847.53776	1.00055
845.48561	1.00018
843.43346	1.00045
841.38131	1.00062
839.32916	1.00000
837.27701	0.99891
835.22486	0.99756
833.17271	0.99579
831.12056	0.99295
829.06841	0.98934
827.01626	0.98558
824.96411	0.98173
822.91196	0.97761
820.85981	0.97301
818.80766	0.96848
816.75551	0.96534
814.70336	0.96327
812.65121	0.96077
810.59906	0.95770
808.54692	0.95483
806.49477	0.95247
804.44262	0.95000
802.39047	0.94668
800.33832	0.94248
798.28617	0.93757
796.23402	0.93233
794.18187	0.92703
792.12972	0.92177
790.07757	0.91681
788.02542	0.91232
785.97327	0.90839
783.92112	0.90511
781.86897	0.90252
779.81682	0.90088
777.76467	0.90035
775.71252	0.90082
773.66037	0.90200
771.60822	0.90324
769.55607	0.90370
767.50392	0.90311
765.45178	0.90192
763.39963	0.90068
761.34748	0.89905
759.29533	0.89686
757.24318	0.89520
755.19103	0.89447
753.13888	0.89347
751.08673	0.89166
749.03458	0.88987
746.98243	0.88820
744.93028	0.88623
742.87813	0.88426
740.82598	0.88245
738.77383	0.88034
736.72168	0.87778
734.66953	0.87482
732.61738	0.87185
730.56523	0.86951
728.51308	0.86746
726.46093	0.86530
724.40878	0.86284
722.35663	0.85968
720.30449	0.85591
718.25234	0.85235
716.20019	0.84974
714.14804	0.84764
712.09589	0.84532
710.04374	0.84291
707.99159	0.84028
705.93944	0.83692
703.88729	0.83307
701.83514	0.82981
699.78299	0.82791
697.73084	0.82623
695.67869	0.82310
693.62654	0.81896
691.57439	0.81550
689.52224	0.81347
687.47009	0.81190
685.41794	0.80955
683.36579	0.80649
681.31364	0.80363
679.26149	0.80160
677.20935	0.79990
675.15720	0.79784
673.10505	0.79565
671.05290	0.79416
669.00075	0.79215
666.94860	0.78871
664.89645	0.78664
662.84430	0.78515
660.79215	0.78321
658.74000	0.78166
656.68785	0.78054
654.63570	0.77906
652.58355	0.77741
650.53140	0.77596
648.47925	0.77444
646.42710	0.77274
644.37495	0.77099
642.32280	0.76952
640.27065	0.76860
638.21850	0.76770
636.16635	0.76629
634.11421	0.76504
632.06206	0.76409
630.00991	0.76249
627.95776	0.76069
625.90561	0.75976
623.85346	0.75925
621.80131	0.75876
619.74916	0.75896
617.69701	0.75948
615.64486	0.75966
613.59271	0.76061
611.54056	0.76230
609.48841	0.76342
607.43626	0.76405
605.38411	0.76455
603.33196	0.76470
601.27981	0.76424
599.22766	0.76337
597.17551	0.76247
595.12336	0.76231
593.07121	0.76319
591.01906	0.76383
588.96692	0.76418
586.91477	0.76466
584.86262	0.76468
582.81047	0.76523
580.75832	0.76670
578.70617	0.76802
576.65402	0.76944
574.60187	0.77152
572.54972	0.77359
570.49757	0.77543
568.44542	0.77749
566.39327	0.77905
564.34112	0.78008
562.28897	0.78231
560.23682	0.78623
558.18467	0.79005
556.13252	0.79207
554.08037	0.79276
552.02822	0.79335
549.97607	0.79425
547.92392	0.79515
545.87178	0.79531
543.81963	0.79446
541.76748	0.79313
539.71533	0.79092
537.66318	0.78693
535.61103	0.78058
533.55888	0.77152
531.50673	0.76111
529.45458	0.75130
527.40243	0.74434
525.35028	0.74252
523.29813	0.74603
521.24598	0.75470
519.19383	0.76759
517.14168	0.78063
515.08953	0.79023
513.03738	0.79706
510.98523	0.80306
508.93308	0.80864
506.88093	0.81358
504.82878	0.81871
502.77664	0.82477
500.72449	0.83015
498.67234	0.83491
496.62019	0.84145
494.56804	0.84828
492.51589	0.85300
490.46374	0.85704
488.41159	0.86162
486.35944	0.86586
484.30729	0.86901
482.25514	0.87107
480.20299	0.87391
478.15084	0.87884
476.09869	0.88436
474.04654	0.89001
471.99439	0.89655
469.94224	0.90400
467.89009	0.91187
465.83794	0.91777
463.78579	0.92122
461.73364	0.92541
459.68149	0.93083
457.62935	0.93481
455.57720	0.93779
453.52505	0.94196
451.47290	0.94411
449.42075	0.94160
447.36860	0.94102
445.31645	0.94463
443.26430	0.94369
441.21215	0.93744
439.16000	0.93432
437.10785	0.93488
435.05570	0.93499
433.00355	0.93554
430.95140	0.93739
428.89925	0.93832
426.84710	0.94043
424.79495	0.94690
422.74280	0.95423
420.69065	0.95861
418.63850	0.96246
416.58635	0.96630
414.53421	0.96958
412.48206	0.97311
410.42991	0.97624
408.37776	0.97874
406.32561	0.98117
404.27346	0.98307
402.22131	0.98449
400.16916	0.99073
398.11701	1.00000
