3997.58729	1.00000
3995.53514	0.99976
3993.48299	0.99957
3991.43084	0.99954
3989.37869	0.99972
3987.32654	0.99993
3985.27439	0.99982
3983.22224	0.99936
3981.17009	0.99903
3979.11794	0.99895
3977.06579	0.99888
3975.01364	0.99885
3972.96149	0.99888
3970.90934	0.99904
3968.85719	0.99922
3966.80504	0.99922
3964.75289	0.99919
3962.70074	0.99929
3960.64859	0.99933
3958.59645	0.99917
3956.54430	0.99903
3954.49215	0.99904
3952.44000	0.99903
3950.38785	0.99904
3948.33570	0.99908
3946.28355	0.99896
3944.23140	0.99868
3942.17925	0.99851
3940.12710	0.99876
3938.07495	0.99921
3936.02280	0.99953
3933.97065	0.99982
3931.91850	0.99996
3929.86635	0.99981
3927.81420	0.99959
3925.76205	0.99958
3923.70990	0.99977
3921.65775	0.99988
3919.60560	0.99984
3917.55345	0.99969
3915.50131	0.99940
3913.44916	0.99910
3911.39701	0.99915
3909.34486	0.99945
3907.29271	0.99963
3905.24056	0.99986
3903.18841	1.00000
3901.13626	0.99980
3899.08411	0.99988
3897.03196	0.99996
3894.97981	0.99967
3892.92766	0.99966
3890.87551	0.99988
3888.82336	0.99970
3886.77121	0.99939
3884.71906	0.99922
3882.66691	0.99929
3880.61476	0.99942
3878.56261	0.99914
3876.51046	0.99889
3874.45831	0.99911
3872.40616	0.99940
3870.35402	0.99941
3868.30187	0.99948
3866.24972	0.99977
3864.19757	0.99985
3862.14542	0.99966
3860.09327	0.99939
3858.04112	0.99912
3855.98897	0.99905
3853.93682	0.99942
3851.88467	0.99988
3849.83252	0.99968
3847.78037	0.99932
3845.72822	0.99925
3843.67607	0.99952
3841.62392	0.99971
3839.57177	0.99966
3837.51962	0.99951
3835.46747	0.99924
3833.41532	0.99911
3831.36317	0.99921
3829.31102	0.99930
3827.25888	0.99923
3825.20673	0.99908
3823.15458	0.99920
3821.10243	0.99959
3819.05028	0.99972
3816.99813	0.99960
3814.94598	0.99933
3812.89383	0.99893
3810.84168	0.99878
3808.78953	0.99913
3806.73738	0.99961
3804.68523	0.99959
3802.63308	0.99900
3800.58093	0.99835
3798.52878	0.99844
3796.47663	0.99889
3794.42448	0.99897
3792.37233	0.99883
3790.32018	0.99882
3788.26803	0.99875
3786.21588	0.99863
3784.16374	0.99871
3782.11159	0.99878
3780.05944	0.99880
3778.00729	0.99888
3775.95514	0.99883
3773.90299	0.99862
3771.85084	0.99847
3769.79869	0.99856
3767.74654	0.99872
3765.69439	0.99874
3763.64224	0.99856
3761.59009	0.99840
3759.53794	0.99837
3757.48579	0.99832
3755.43364	0.99827
3753.38149	0.99850
3751.32934	0.99915
3749.27719	0.99949
3747.22504	0.99929
3745.17289	0.99927
3743.12074	0.99934
3741.06859	0.99918
3739.01645	0.99906
3736.96430	0.99929
3734.91215	0.99987
3732.86000	0.99985
3730.80785	0.99907
3728.75570	0.99830
3726.70355	0.99810
3724.65140	0.99851
3722.59925	0.99886
3720.54710	0.99882
3718.49495	0.99859
3716.44280	0.99838
3714.39065	0.99837
3712.33850	0.99864
3710.28635	0.99878
3708.23420	0.99847
3706.18205	0.99809
3704.12990	0.99800
3702.07775	0.99816
3700.02560	0.99827
3697.97345	0.99811
3695.92131	0.99762
3693.86916	0.99735
3691.81701	0.99781
3689.76486	0.99825
3687.71271	0.99811
3685.66056	0.99768
3683.60841	0.99713
3681.55626	0.99685
3679.50411	0.99682
3677.45196	0.99681
3675.39981	0.99662
3673.34766	0.99615
3671.29551	0.99607
3669.24336	0.99639
3667.19121	0.99621
3665.13906	0.99574
3663.08691	0.99551
3661.03476	0.99536
3658.98261	0.99514
3656.93046	0.99493
3654.87831	0.99480
3652.82617	0.99485
3650.77402	0.99503
3648.72187	0.99471
3646.66972	0.99383
3644.61757	0.99316
3642.56542	0.99274
3640.51327	0.99245
3638.46112	0.99207
3636.40897	0.99156
3634.35682	0.99107
3632.30467	0.99089
3630.25252	0.99103
3628.20037	0.99044
3626.14822	0.98912
3624.09607	0.98825
3622.04392	0.98806
3619.99177	0.98804
3617.93962	0.98720
3615.88747	0.98612
3613.83532	0.98555
3611.78317	0.98512
3609.73102	0.98446
3607.67888	0.98346
3605.62673	0.98229
3603.57458	0.98129
3601.52243	0.98047
3599.47028	0.97980
3597.41813	0.97906
3595.36598	0.97798
3593.31383	0.97670
3591.26168	0.97564
3589.20953	0.97475
3587.15738	0.97371
3585.10523	0.97234
3583.05308	0.97094
3581.00093	0.96970
3578.94878	0.96848
3576.89663	0.96704
3574.84448	0.96547
3572.79233	0.96406
3570.74018	0.96280
3568.68803	0.96148
3566.63588	0.95988
3564.58374	0.95820
3562.53159	0.95648
3560.47944	0.95462
3558.42729	0.95280
3556.37514	0.95115
3554.32299	0.94950
3552.27084	0.94748
3550.21869	0.94515
3548.16654	0.94285
3546.11439	0.94063
3544.06224	0.93865
3542.01009	0.93686
3539.95794	0.93481
3537.90579	0.93229
3535.85364	0.92968
3533.80149	0.92710
3531.74934	0.92463
3529.69719	0.92244
3527.64504	0.92012
3525.59289	0.91750
3523.54074	0.91471
3521.48860	0.91166
3519.43645	0.90872
3517.38430	0.90604
3515.33215	0.90342
3513.28000	0.90048
3511.22785	0.89711
3509.17570	0.89382
3507.12355	0.89112
3505.07140	0.88852
3503.01925	0.88537
3500.96710	0.88213
3498.91495	0.87928
3496.86280	0.87620
3494.81065	0.87265
3492.75850	0.86918
3490.70635	0.86602
3488.65420	0.86284
3486.60205	0.85946
3484.54990	0.85605
3482.49775	0.85269
3480.44560	0.84928
3478.39345	0.84590
3476.34131	0.84267
3474.28916	0.83957
3472.23701	0.83635
3470.18486	0.83293
3468.13271	0.82956
3466.08056	0.82624
3464.02841	0.82269
3461.97626	0.81897
3459.92411	0.81542
3457.87196	0.81212
3455.81981	0.80883
3453.76766	0.80522
3451.71551	0.80146
3449.66336	0.79783
3447.61121	0.79428
3445.55906	0.79071
3443.50691	0.78721
3441.45476	0.78360
3439.40261	0.78012
3437.35046	0.77671
3435.29831	0.77309
3433.24617	0.76948
3431.19402	0.76592
3429.14187	0.76236
3427.08972	0.75900
3425.03757	0.75574
3422.98542	0.75233
3420.93327	0.74874
3418.88112	0.74515
3416.82897	0.74179
3414.77682	0.73857
3412.72467	0.73534
3410.67252	0.73202
3408.62037	0.72862
3406.56822	0.72533
3404.51607	0.72222
3402.46392	0.71917
3400.41177	0.71595
3398.35962	0.71257
3396.30747	0.70926
3394.25532	0.70609
3392.20317	0.70297
3390.15103	0.69972
3388.09888	0.69634
3386.04673	0.69318
3383.99458	0.69038
3381.94243	0.68768
3379.89028	0.68479
3377.83813	0.68166
3375.78598	0.67869
3373.73383	0.67598
3371.68168	0.67321
3369.62953	0.67043
3367.57738	0.66780
3365.52523	0.66510
3363.47308	0.66246
3361.42093	0.66002
3359.36878	0.65754
3357.31663	0.65505
3355.26448	0.65272
3353.21233	0.65053
3351.16018	0.64825
3349.10803	0.64586
3347.05588	0.64365
3345.00374	0.64172
3342.95159	0.63995
3340.89944	0.63824
3338.84729	0.63661
3336.79514	0.63505
3334.74299	0.63344
3332.69084	0.63190
3330.63869	0.63059
3328.58654	0.62939
3326.53439	0.62826
3324.48224	0.62726
3322.43009	0.62629
3320.37794	0.62525
3318.32579	0.62431
3316.27364	0.62366
3314.22149	0.62324
3312.16934	0.62295
3310.11719	0.62277
3308.06504	0.62264
3306.01289	0.62248
3303.96074	0.62226
3301.90860	0.62211
3299.85645	0.62205
3297.80430	0.62206
3295.75215	0.62228
3293.70000	0.62276
3291.64785	0.62325
3289.59570	0.62366
3287.54355	0.62417
3285.49140	0.62476
3283.43925	0.62547
3281.38710	0.62641
3279.33495	0.62760
3277.28280	0.62887
3275.23065	0.63007
3273.17850	0.63119
3271.12635	0.63217
3269.07420	0.63318
3267.02205	0.63459
3264.96990	0.63622
3262.91775	0.63776
3260.86560	0.63939
3258.81346	0.64121
3256.76131	0.64314
3254.70916	0.64501
3252.65701	0.64669
3250.60486	0.64856
3248.55271	0.65087
3246.50056	0.65321
3244.44841	0.65541
3242.39626	0.65780
3240.34411	0.66035
3238.29196	0.66288
3236.23981	0.66554
3234.18766	0.66835
3232.13551	0.67109
3230.08336	0.67373
3228.03121	0.67660
3225.97906	0.67983
3223.92691	0.68315
3221.87476	0.68642
3219.82261	0.68962
3217.77046	0.69272
3215.71832	0.69584
3213.66617	0.69914
3211.61402	0.70254
3209.56187	0.70588
3207.50972	0.70924
3205.45757	0.71273
3203.40542	0.71642
3201.35327	0.72015
3199.30112	0.72377
3197.24897	0.72743
3195.19682	0.73113
3193.14467	0.73476
3191.09252	0.73831
3189.04037	0.74187
3186.98822	0.74565
3184.93607	0.74968
3182.88392	0.75370
3180.83177	0.75759
3178.77962	0.76134
3176.72747	0.76497
3174.67532	0.76859
3172.62317	0.77219
3170.57103	0.77581
3168.51888	0.77951
3166.46673	0.78314
3164.41458	0.78681
3162.36243	0.79066
3160.31028	0.79442
3158.25813	0.79793
3156.20598	0.80124
3154.15383	0.80462
3152.10168	0.80821
3150.04953	0.81170
3147.99738	0.81489
3145.94523	0.81799
3143.89308	0.82119
3141.84093	0.82449
3139.78878	0.82786
3137.73663	0.83120
3135.68448	0.83436
3133.63233	0.83741
3131.58018	0.84044
3129.52803	0.84337
3127.47589	0.84619
3125.42374	0.84900
3123.37159	0.85194
3121.31944	0.85488
3119.26729	0.85765
3117.21514	0.86032
3115.16299	0.86299
3113.11084	0.86551
3111.05869	0.86789
3109.00654	0.87038
3106.95439	0.87294
3104.90224	0.87527
3102.85009	0.87740
3100.79794	0.87951
3098.74579	0.88174
3096.69364	0.88408
3094.64149	0.88634
3092.58934	0.88839
3090.53719	0.89030
3088.48504	0.89216
3086.43289	0.89398
3084.38075	0.89586
3082.32860	0.89779
3080.27645	0.89980
3078.22430	0.90179
3076.17215	0.90350
3074.12000	0.90507
3072.06785	0.90677
3070.01570	0.90846
3067.96355	0.90989
3065.91140	0.91126
3063.85925	0.91272
3061.80710	0.91407
3059.75495	0.91531
3057.70280	0.91670
3055.65065	0.91805
3053.59850	0.91925
3051.54635	0.92049
3049.49420	0.92160
3047.44205	0.92268
3045.38990	0.92389
3043.33775	0.92493
3041.28560	0.92581
3039.23346	0.92682
3037.18131	0.92787
3035.12916	0.92879
3033.07701	0.92976
3031.02486	0.93064
3028.97271	0.93124
3026.92056	0.93176
3024.86841	0.93230
3022.81626	0.93276
3020.76411	0.93309
3018.71196	0.93340
3016.65981	0.93388
3014.60766	0.93445
3012.55551	0.93483
3010.50336	0.93500
3008.45121	0.93503
3006.39906	0.93486
3004.34691	0.93449
3002.29476	0.93408
3000.24261	0.93368
2998.19046	0.93313
2996.13832	0.93204
2994.08617	0.93036
2992.03402	0.92834
2989.98187	0.92581
2987.92972	0.92261
2985.87757	0.91864
2983.82542	0.91360
2981.77327	0.90721
2979.72112	0.89959
2977.66897	0.89100
2975.61682	0.88144
2973.56467	0.87074
2971.51252	0.85919
2969.46037	0.84731
2967.40822	0.83545
2965.35607	0.82384
2963.30392	0.81259
2961.25177	0.80156
2959.19962	0.79053
2957.14747	0.77943
2955.09532	0.76840
2953.04318	0.75753
2950.99103	0.74721
2948.93888	0.73835
2946.88673	0.73169
2944.83458	0.72741
2942.78243	0.72527
2940.73028	0.72486
2938.67813	0.72572
2936.62598	0.72760
2934.57383	0.73016
2932.52168	0.73297
2930.46953	0.73612
2928.41738	0.74015
2926.36523	0.74504
2924.31308	0.75034
2922.26093	0.75584
2920.20878	0.76135
2918.15663	0.76659
2916.10448	0.77129
2914.05233	0.77538
2912.00018	0.77895
2909.94803	0.78189
2907.89589	0.78403
2905.84374	0.78507
2903.79159	0.78479
2901.73944	0.78312
2899.68729	0.77994
2897.63514	0.77514
2895.58299	0.76859
2893.53084	0.76064
2891.47869	0.75197
2889.42654	0.74315
2887.37439	0.73469
2885.32224	0.72730
2883.27009	0.72153
2881.21794	0.71749
2879.16579	0.71518
2877.11364	0.71471
2875.06149	0.71602
2873.00934	0.71883
2870.95719	0.72306
2868.90504	0.72866
2866.85289	0.73527
2864.80075	0.74256
2862.74860	0.75017
2860.69645	0.75778
2858.64430	0.76529
2856.59215	0.77258
2854.54000	0.77959
2852.48785	0.78684
2850.43570	0.79455
2848.38355	0.80233
2846.33140	0.81008
2844.27925	0.81786
2842.22710	0.82535
2840.17495	0.83221
2838.12280	0.83842
2836.07065	0.84400
2834.01850	0.84889
2831.96635	0.85348
2829.91420	0.85806
2827.86205	0.86243
2825.80990	0.86651
2823.75775	0.87046
2821.70561	0.87436
2819.65346	0.87801
2817.60131	0.88140
2815.54916	0.88468
2813.49701	0.88766
2811.44486	0.89034
2809.39271	0.89309
2807.34056	0.89589
2805.28841	0.89852
2803.23626	0.90105
2801.18411	0.90358
2799.13196	0.90596
2797.07981	0.90815
2795.02766	0.91033
2792.97551	0.91252
2790.92336	0.91462
2788.87121	0.91655
2786.81906	0.91830
2784.76691	0.91997
2782.71476	0.92146
2780.66261	0.92279
2778.61046	0.92413
2776.55832	0.92541
2774.50617	0.92633
2772.45402	0.92698
2770.40187	0.92766
2768.34972	0.92842
2766.29757	0.92911
2764.24542	0.92965
2762.19327	0.93011
2760.14112	0.93065
2758.08897	0.93120
2756.03682	0.93158
2753.98467	0.93185
2751.93252	0.93230
2749.88037	0.93286
2747.82822	0.93325
2745.77607	0.93361
2743.72392	0.93426
2741.67177	0.93504
2739.61962	0.93579
2737.56747	0.93649
2735.51532	0.93705
2733.46318	0.93749
2731.41103	0.93794
2729.35888	0.93853
2727.30673	0.93921
2725.25458	0.94000
2723.20243	0.94092
2721.15028	0.94190
2719.09813	0.94281
2717.04598	0.94376
2714.99383	0.94494
2712.94168	0.94625
2710.88953	0.94752
2708.83738	0.94863
2706.78523	0.94956
2704.73308	0.95046
2702.68093	0.95131
2700.62878	0.95187
2698.57663	0.95219
2696.52448	0.95282
2694.47233	0.95376
2692.42018	0.95450
2690.36804	0.95498
2688.31589	0.95555
2686.26374	0.95646
2684.21159	0.95735
2682.15944	0.95773
2680.10729	0.95784
2678.05514	0.95819
2676.00299	0.95882
2673.95084	0.95952
2671.89869	0.95999
2669.84654	0.96003
2667.79439	0.95999
2665.74224	0.96033
2663.69009	0.96087
2661.63794	0.96124
2659.58579	0.96143
2657.53364	0.96163
2655.48149	0.96189
2653.42934	0.96218
2651.37719	0.96249
2649.32504	0.96282
2647.27289	0.96310
2645.22075	0.96333
2643.16860	0.96366
2641.11645	0.96410
2639.06430	0.96456
2637.01215	0.96505
2634.96000	0.96550
2632.90785	0.96567
2630.85570	0.96568
2628.80355	0.96601
2626.75140	0.96662
2624.69925	0.96716
2622.64710	0.96771
2620.59495	0.96824
2618.54280	0.96845
2616.49065	0.96841
2614.43850	0.96854
2612.38635	0.96904
2610.33420	0.96957
2608.28205	0.96973
2606.22990	0.96975
2604.17775	0.97003
2602.12561	0.97045
2600.07346	0.97079
2598.02131	0.97127
2595.96916	0.97190
2593.91701	0.97236
2591.86486	0.97251
2589.81271	0.97258
2587.76056	0.97282
2585.70841	0.97321
2583.65626	0.97364
2581.60411	0.97424
2579.55196	0.97493
2577.49981	0.97546
2575.44766	0.97588
2573.39551	0.97598
2571.34336	0.97583
2569.29121	0.97588
2567.23906	0.97599
2565.18691	0.97595
2563.13476	0.97598
2561.08261	0.97602
2559.03047	0.97601
2556.97832	0.97603
2554.92617	0.97604
2552.87402	0.97617
2550.82187	0.97637
2548.76972	0.97637
2546.71757	0.97625
2544.66542	0.97632
2542.61327	0.97658
2540.56112	0.97676
2538.50897	0.97674
2536.45682	0.97664
2534.40467	0.97666
2532.35252	0.97682
2530.30037	0.97686
2528.24822	0.97680
2526.19607	0.97689
2524.14392	0.97715
2522.09177	0.97741
2520.03962	0.97761
2517.98747	0.97776
2515.93532	0.97782
2513.88318	0.97777
2511.83103	0.97774
2509.77888	0.97766
2507.72673	0.97739
2505.67458	0.97733
2503.62243	0.97784
2501.57028	0.97848
2499.51813	0.97880
2497.46598	0.97902
2495.41383	0.97937
2493.36168	0.97961
2491.30953	0.97966
2489.25738	0.97980
2487.20523	0.98020
2485.15308	0.98091
2483.10093	0.98148
2481.04878	0.98163
2478.99663	0.98162
2476.94448	0.98163
2474.89233	0.98183
2472.84018	0.98216
2470.78804	0.98240
2468.73589	0.98270
2466.68374	0.98299
2464.63159	0.98293
2462.57944	0.98281
2460.52729	0.98295
2458.47514	0.98317
2456.42299	0.98336
2454.37084	0.98376
2452.31869	0.98427
2450.26654	0.98454
2448.21439	0.98470
2446.16224	0.98494
2444.11009	0.98519
2442.05794	0.98553
2440.00579	0.98570
2437.95364	0.98554
2435.90149	0.98542
2433.84934	0.98556
2431.79719	0.98588
2429.74504	0.98627
2427.69290	0.98644
2425.64075	0.98634
2423.58860	0.98631
2421.53645	0.98636
2419.48430	0.98617
2417.43215	0.98592
2415.38000	0.98610
2413.32785	0.98642
2411.27570	0.98641
2409.22355	0.98638
2407.17140	0.98661
2405.11925	0.98674
2403.06710	0.98683
2401.01495	0.98724
2398.96280	0.98753
2396.91065	0.98734
2394.85850	0.98699
2392.80635	0.98680
2390.75420	0.98694
2388.70205	0.98735
2386.64990	0.98773
2384.59775	0.98793
2382.54561	0.98805
2380.49346	0.98815
2378.44131	0.98827
2376.38916	0.98842
2374.33701	0.98835
2372.28486	0.98816
2370.23271	0.98846
2368.18056	0.98920
2366.12841	0.98975
2364.07626	0.98980
2362.02411	0.98930
2359.97196	0.98890
2357.91981	0.98930
2355.86766	0.98979
2353.81551	0.98936
2351.76336	0.98857
2349.71121	0.98831
2347.65906	0.98844
2345.60691	0.98877
2343.55476	0.98917
2341.50261	0.98919
2339.45047	0.98892
2337.39832	0.98898
2335.34617	0.98938
2333.29402	0.98978
2331.24187	0.98995
2329.18972	0.98995
2327.13757	0.98993
2325.08542	0.98991
2323.03327	0.99005
2320.98112	0.99019
2318.92897	0.99009
2316.87682	0.99002
2314.82467	0.99026
2312.77252	0.99063
2310.72037	0.99062
2308.66822	0.99017
2306.61607	0.98982
2304.56392	0.98977
2302.51177	0.98975
2300.45962	0.98979
2298.40747	0.98998
2296.35533	0.99002
2294.30318	0.98984
2292.25103	0.98997
2290.19888	0.99046
2288.14673	0.99074
2286.09458	0.99084
2284.04243	0.99104
2281.99028	0.99115
2279.93813	0.99115
2277.88598	0.99114
2275.83383	0.99088
2273.78168	0.99061
2271.72953	0.99097
2269.67738	0.99147
2267.62523	0.99189
2265.57308	0.99239
2263.52093	0.99235
2261.46878	0.99196
2259.41663	0.99201
2257.36448	0.99246
2255.31233	0.99281
2253.26018	0.99308
2251.20804	0.99334
2249.15589	0.99322
2247.10374	0.99279
2245.05159	0.99239
2242.99944	0.99215
2240.94729	0.99232
2238.89514	0.99310
2236.84299	0.99365
2234.79084	0.99309
2232.73869	0.99248
2230.68654	0.99283
2228.63439	0.99333
2226.58224	0.99328
2224.53009	0.99315
2222.47794	0.99349
2220.42579	0.99406
2218.37364	0.99447
2216.32149	0.99417
2214.26934	0.99330
2212.21719	0.99305
2210.16504	0.99377
2208.11290	0.99439
2206.06075	0.99405
2204.00860	0.99347
2201.95645	0.99323
2199.90430	0.99324
2197.85215	0.99382
2195.80000	0.99480
2193.74785	0.99535
2191.69570	0.99509
2189.64355	0.99515
2187.59140	0.99582
2185.53925	0.99581
2183.48710	0.99526
2181.43495	0.99483
2179.38280	0.99471
2177.33065	0.99524
2175.27850	0.99608
2173.22635	0.99664
2171.17420	0.99676
2169.12205	0.99684
2167.06990	0.99792
2165.01776	0.99943
2162.96561	0.99950
2160.91346	0.99881
2158.86131	0.99916
2156.80916	0.99972
2154.75701	0.99879
2152.70486	0.99719
2150.65271	0.99631
2148.60056	0.99554
2146.54841	0.99475
2144.49626	0.99456
2142.44411	0.99472
2140.39196	0.99461
2138.33981	0.99411
2136.28766	0.99357
2134.23551	0.99319
2132.18336	0.99332
2130.13121	0.99403
2128.07906	0.99452
2126.02691	0.99425
2123.97476	0.99352
2121.92262	0.99300
2119.87047	0.99314
2117.81832	0.99376
2115.76617	0.99413
2113.71402	0.99424
2111.66187	0.99474
2109.60972	0.99507
2107.55757	0.99469
2105.50542	0.99429
2103.45327	0.99392
2101.40112	0.99357
2099.34897	0.99384
2097.29682	0.99430
2095.24467	0.99428
2093.19252	0.99420
2091.14037	0.99423
2089.08822	0.99419
2087.03607	0.99400
2084.98392	0.99370
2082.93177	0.99399
2080.87962	0.99544
2078.82747	0.99669
2076.77533	0.99621
2074.72318	0.99522
2072.67103	0.99495
2070.61888	0.99501
2068.56673	0.99499
2066.51458	0.99442
2064.46243	0.99371
2062.41028	0.99373
2060.35813	0.99441
2058.30598	0.99518
2056.25383	0.99518
2054.20168	0.99437
2052.14953	0.99374
2050.09738	0.99373
2048.04523	0.99407
2045.99308	0.99438
2043.94093	0.99428
2041.88878	0.99392
2039.83663	0.99463
2037.78448	0.99598
2035.73233	0.99649
2033.68019	0.99703
2031.62804	0.99754
2029.57589	0.99722
2027.52374	0.99731
2025.47159	0.99777
2023.41944	0.99764
2021.36729	0.99744
2019.31514	0.99746
2017.26299	0.99813
2015.21084	0.99882
2013.15869	0.99796
2011.10654	0.99660
2009.05439	0.99645
2007.00224	0.99739
2004.95009	0.99806
2002.89794	0.99768
2000.84579	0.99708
1998.79364	0.99665
1996.74149	0.99641
1994.68934	0.99683
1992.63719	0.99738
1990.58505	0.99803
1988.53290	0.99902
1986.48075	0.99880
1984.42860	0.99716
1982.37645	0.99589
1980.32430	0.99599
1978.27215	0.99680
1976.22000	0.99734
1974.16785	0.99752
1972.11570	0.99748
1970.06355	0.99789
1968.01140	0.99904
1965.95925	0.99970
1963.90710	0.99957
1961.85495	0.99949
1959.80280	0.99930
1957.75065	0.99855
1955.69850	0.99813
1953.64635	0.99868
1951.59420	0.99910
1949.54205	0.99859
1947.48990	0.99747
1945.43776	0.99631
1943.38561	0.99576
1941.33346	0.99565
1939.28131	0.99567
1937.22916	0.99566
1935.17701	0.99560
1933.12486	0.99575
1931.07271	0.99595
1929.02056	0.99610
1926.96841	0.99652
1924.91626	0.99674
1922.86411	0.99619
1920.81196	0.99582
1918.75981	0.99592
1916.70766	0.99619
1914.65551	0.99656
1912.60336	0.99668
1910.55121	0.99671
1908.49906	0.99698
1906.44691	0.99723
1904.39476	0.99744
1902.34262	0.99768
1900.29047	0.99773
1898.23832	0.99765
1896.18617	0.99768
1894.13402	0.99798
1892.08187	0.99837
1890.02972	0.99846
1887.97757	0.99829
1885.92542	0.99817
1883.87327	0.99799
1881.82112	0.99759
1879.76897	0.99739
1877.71682	0.99765
1875.66467	0.99804
1873.61252	0.99814
1871.56037	0.99825
1869.50822	0.99872
1867.45607	0.99859
1865.40392	0.99783
1863.35177	0.99757
1861.29962	0.99782
1859.24748	0.99814
1857.19533	0.99834
1855.14318	0.99833
1853.09103	0.99831
1851.03888	0.99840
1848.98673	0.99836
1846.93458	0.99830
1844.88243	0.99841
1842.83028	0.99847
1840.77813	0.99850
1838.72598	0.99846
1836.67383	0.99822
1834.62168	0.99809
1832.56953	0.99809
1830.51738	0.99805
1828.46523	0.99816
1826.41308	0.99850
1824.36093	0.99857
1822.30878	0.99841
1820.25663	0.99853
1818.20448	0.99883
1816.15233	0.99896
1814.10019	0.99894
1812.04804	0.99910
1809.99589	0.99947
1807.94374	0.99969
1805.89159	0.99962
1803.83944	0.99944
1801.78729	0.99938
1799.73514	0.99947
1797.68299	0.99948
1795.63084	0.99935
1793.57869	0.99924
1791.52654	0.99918
1789.47439	0.99918
1787.42224	0.99930
1785.37009	0.99942
1783.31794	0.99955
1781.26579	0.99968
1779.21364	0.99974
1777.16149	0.99970
1775.10934	0.99949
1773.05719	0.99925
1771.00505	0.99919
1768.95290	0.99913
1766.90075	0.99913
1764.84860	0.99930
1762.79645	0.99936
1760.74430	0.99905
1758.69215	0.99877
1756.64000	0.99872
1754.58785	0.99876
1752.53570	0.99886
1750.48355	0.99891
1748.43140	0.99882
1746.37925	0.99883
1744.32710	0.99889
1742.27495	0.99894
1740.22280	0.99905
1738.17065	0.99907
1736.11850	0.99916
1734.06635	0.99939
1732.01420	0.99932
1729.96205	0.99922
1727.90991	0.99932
1725.85776	0.99956
1723.80561	0.99968
1721.75346	0.99961
1719.70131	0.99954
1717.64916	0.99942
1715.59701	0.99894
1713.54486	0.99827
1711.49271	0.99756
1709.44056	0.99709
1707.38841	0.99698
1705.33626	0.99684
1703.28411	0.99659
1701.23196	0.99656
1699.17981	0.99644
1697.12766	0.99584
1695.07551	0.99513
1693.02336	0.99479
1690.97121	0.99462
1688.91906	0.99436
1686.86691	0.99417
1684.81476	0.99382
1682.76262	0.99291
1680.71047	0.99214
1678.65832	0.99162
1676.60617	0.99123
1674.55402	0.99074
1672.50187	0.99030
1670.44972	0.99013
1668.39757	0.98983
1666.34542	0.98953
1664.29327	0.98952
1662.24112	0.98963
1660.18897	0.98974
1658.13682	0.98997
1656.08467	0.99030
1654.03252	0.99082
1651.98037	0.99123
1649.92822	0.99150
1647.87607	0.99202
1645.82392	0.99247
1643.77177	0.99268
1641.71962	0.99292
1639.66748	0.99323
1637.61533	0.99373
1635.56318	0.99446
1633.51103	0.99495
1631.45888	0.99533
1629.40673	0.99583
1627.35458	0.99633
1625.30243	0.99690
1623.25028	0.99745
1621.19813	0.99778
1619.14598	0.99817
1617.09383	0.99860
1615.04168	0.99866
1612.98953	0.99865
1610.93738	0.99886
1608.88523	0.99916
1606.83308	0.99932
1604.78093	0.99938
1602.72878	0.99949
1600.67663	0.99959
1598.62448	0.99968
1596.57234	0.99981
1594.52019	0.99992
1592.46804	0.99996
1590.41589	0.99999
1588.36374	1.00000
1586.31159	0.99997
1584.25944	0.99984
1582.20729	0.99967
1580.15514	0.99956
1578.10299	0.99974
1576.05084	1.00000
1573.99869	0.99980
1571.94654	0.99976
1569.89439	0.99985
1567.84224	0.99953
1565.79009	0.99912
1563.73794	0.99896
1561.68579	0.99915
1559.63364	0.99967
1557.58149	0.99941
1555.52934	0.99865
1553.47719	0.99815
1551.42505	0.99777
1549.37290	0.99748
1547.32075	0.99739
1545.26860	0.99754
1543.21645	0.99778
1541.16430	0.99802
1539.11215	0.99726
1537.06000	0.99635
1535.00785	0.99587
1532.95570	0.99517
1530.90355	0.99438
1528.85140	0.99385
1526.79925	0.99308
1524.74710	0.99223
1522.69495	0.99170
1520.64280	0.99082
1518.59065	0.98976
1516.53850	0.98838
1514.48635	0.98674
1512.43420	0.98536
1510.38205	0.98442
1508.32991	0.98324
1506.27776	0.98002
1504.22561	0.97684
1502.17346	0.97471
1500.12131	0.97210
1498.06916	0.96773
1496.01701	0.96108
1493.96486	0.95434
1491.91271	0.94722
1489.86056	0.93587
1487.80841	0.92158
1485.75626	0.90925
1483.70411	0.89847
1481.65196	0.88814
1479.59981	0.87957
1477.54766	0.87394
1475.49551	0.87047
1473.44336	0.86900
1471.39121	0.86976
1469.33906	0.87227
1467.28691	0.87578
1465.23477	0.87980
1463.18262	0.88248
1461.13047	0.88323
1459.07832	0.88248
1457.02617	0.87874
1454.97402	0.87356
1452.92187	0.86971
1450.86972	0.86589
1448.81757	0.86102
1446.76542	0.85497
1444.71327	0.84904
1442.66112	0.84369
1440.60897	0.83933
1438.55682	0.83665
1436.50467	0.83499
1434.45252	0.83373
1432.40037	0.83202
1430.34822	0.82851
1428.29607	0.82328
1426.24392	0.81805
1424.19177	0.81344
1422.13962	0.81058
1420.08748	0.81050
1418.03533	0.81284
1415.98318	0.81610
1413.93103	0.81982
1411.87888	0.82428
1409.82673	0.82916
1407.77458	0.83394
1405.72243	0.83875
1403.67028	0.84365
1401.61813	0.84805
1399.56598	0.85207
1397.51383	0.85532
1395.46168	0.85703
1393.40953	0.85717
1391.35738	0.85610
1389.30523	0.85396
1387.25308	0.85054
1385.20093	0.84685
1383.14878	0.84383
1381.09663	0.84104
1379.04448	0.83820
1376.99234	0.83557
1374.94019	0.83353
1372.88804	0.83257
1370.83589	0.83321
1368.78374	0.83530
1366.73159	0.83818
1364.67944	0.84114
1362.62729	0.84358
1360.57514	0.84452
1358.52299	0.84412
1356.47084	0.84333
1354.41869	0.84282
1352.36654	0.84325
1350.31439	0.84491
1348.26224	0.84754
1346.21009	0.85073
1344.15794	0.85409
1342.10579	0.85730
1340.05364	0.86043
1338.00149	0.86344
1335.94934	0.86609
1333.89720	0.86855
1331.84505	0.87083
1329.79290	0.87299
1327.74075	0.87519
1325.68860	0.87751
1323.63645	0.87977
1321.58430	0.88174
1319.53215	0.88357
1317.48000	0.88564
1315.42785	0.88820
1313.37570	0.89120
1311.32355	0.89439
1309.27140	0.89763
1307.21925	0.90082
1305.16710	0.90370
1303.11495	0.90603
1301.06280	0.90764
1299.01065	0.90843
1296.95850	0.90855
1294.90635	0.90843
1292.85420	0.90859
1290.80205	0.90947
1288.74991	0.91150
1286.69776	0.91487
1284.64561	0.91947
1282.59346	0.92493
1280.54131	0.93080
1278.48916	0.93667
1276.43701	0.94204
1274.38486	0.94653
1272.33271	0.95011
1270.28056	0.95294
1268.22841	0.95496
1266.17626	0.95623
1264.12411	0.95705
1262.07196	0.95742
1260.01981	0.95725
1257.96766	0.95667
1255.91551	0.95591
1253.86336	0.95506
1251.81121	0.95392
1249.75906	0.95242
1247.70691	0.95070
1245.65477	0.94868
1243.60262	0.94629
1241.55047	0.94374
1239.49832	0.94132
1237.44617	0.93933
1235.39402	0.93797
1233.34187	0.93727
1231.28972	0.93732
1229.23757	0.93814
1227.18542	0.93953
1225.13327	0.94118
1223.08112	0.94274
1221.02897	0.94415
1218.97682	0.94535
1216.92467	0.94627
1214.87252	0.94689
1212.82037	0.94730
1210.76822	0.94753
1208.71607	0.94746
1206.66392	0.94699
1204.61177	0.94604
1202.55963	0.94459
1200.50748	0.94285
1198.45533	0.94123
1196.40318	0.93967
1194.35103	0.93801
1192.29888	0.93671
1190.24673	0.93615
1188.19458	0.93603
1186.14243	0.93635
1184.09028	0.93763
1182.03813	0.94010
1179.98598	0.94336
1177.93383	0.94724
1175.88168	0.95192
1173.82953	0.95725
1171.77738	0.96293
1169.72523	0.96884
1167.67308	0.97487
1165.62093	0.98062
1163.56878	0.98558
1161.51663	0.98969
1159.46448	0.99317
1157.41234	0.99587
1155.36019	0.99773
1153.30804	0.99908
1151.25589	0.99979
1149.20374	0.99960
1147.15159	0.99845
1145.09944	0.99656
1143.04729	0.99408
1140.99514	0.99092
1138.94299	0.98672
1136.89084	0.98094
1134.83869	0.97301
1132.78654	0.96246
1130.73439	0.94928
1128.68224	0.93399
1126.63009	0.91764
1124.57794	0.90151
1122.52579	0.88659
1120.47364	0.87376
1118.42149	0.86359
1116.36934	0.85600
1114.31720	0.85056
1112.26505	0.84657
1110.21290	0.84297
1108.16075	0.83880
1106.10860	0.83378
1104.05645	0.82783
1102.00430	0.82075
1099.95215	0.81314
1097.90000	0.80612
1095.84785	0.80010
1093.79570	0.79478
1091.74355	0.78923
1089.69140	0.78183
1087.63925	0.77085
1085.58710	0.75468
1083.53495	0.73239
1081.48280	0.70446
1079.43065	0.67219
1077.37850	0.63721
1075.32635	0.60118
1073.27420	0.56478
1071.22206	0.52800
1069.16991	0.49123
1067.11776	0.45529
1065.06561	0.42154
1063.01346	0.39186
1060.96131	0.36812
1058.90916	0.35171
1056.85701	0.34326
1054.80486	0.34256
1052.75271	0.34840
1050.70056	0.35881
1048.64841	0.37183
1046.59626	0.38561
1044.54411	0.39768
1042.49196	0.40551
1040.43981	0.40786
1038.38766	0.40583
1036.33551	0.40263
1034.28336	0.40198
1032.23121	0.40731
1030.17906	0.42126
1028.12692	0.44514
1026.07477	0.47826
1024.02262	0.51834
1021.97047	0.56259
1019.91832	0.60854
1017.86617	0.65424
1015.81402	0.69831
1013.76187	0.73941
1011.70972	0.77610
1009.65757	0.80725
1007.60542	0.83201
1005.55327	0.84955
1003.50112	0.85898
1001.44897	0.85983
999.39682	0.85174
997.34467	0.83444
995.29252	0.80811
993.24037	0.77415
991.18822	0.73613
989.13607	0.69917
987.08392	0.66919
985.03177	0.65159
982.97963	0.64971
980.92748	0.66407
978.87533	0.69239
976.82318	0.73042
974.77103	0.77262
972.71888	0.81317
970.66673	0.84817
968.61458	0.87612
966.56243	0.89681
964.51028	0.91079
962.45813	0.91927
960.40598	0.92381
958.35383	0.92523
956.30168	0.92324
954.24953	0.91675
952.19738	0.90395
950.14523	0.88365
948.09308	0.85697
946.04093	0.82752
943.98878	0.80049
941.93663	0.78086
939.88449	0.77141
937.83234	0.77176
935.78019	0.77836
933.72804	0.78564
931.67589	0.78836
929.62374	0.78342
927.57159	0.77076
925.51944	0.75372
923.46729	0.73738
921.41514	0.72647
919.36299	0.72455
917.31084	0.73345
915.25869	0.75322
913.20654	0.78173
911.15439	0.81513
909.10224	0.84952
907.05009	0.88189
904.99794	0.91006
902.94579	0.93303
900.89364	0.95137
898.84149	0.96573
896.78935	0.97618
894.73720	0.98339
892.68505	0.98871
890.63290	0.99289
888.58075	0.99603
886.52860	0.99813
884.47645	0.99882
882.42430	0.99763
880.37215	0.99480
878.32000	0.99089
876.26785	0.98636
874.21570	0.98155
872.16355	0.97696
870.11140	0.97345
868.05925	0.97243
866.00710	0.97487
863.95495	0.98025
861.90280	0.98672
859.85065	0.99265
857.79850	0.99731
855.74635	0.99988
853.69420	0.99995
851.64206	0.99874
849.58991	0.99776
847.53776	0.99746
845.48561	0.99790
843.43346	0.99875
841.38131	0.99948
839.32916	0.99988
837.27701	0.99996
835.22486	0.99925
833.17271	0.99766
831.12056	0.99534
829.06841	0.99206
827.01626	0.98794
824.96411	0.98359
822.91196	0.97877
820.85981	0.97346
818.80766	0.96864
816.75551	0.96492
814.70336	0.96187
812.65121	0.95925
810.59906	0.95703
808.54692	0.95475
806.49477	0.95169
804.44262	0.94745
802.39047	0.94273
800.33832	0.93832
798.28617	0.93372
796.23402	0.92852
794.18187	0.92289
792.12972	0.91684
790.07757	0.91082
788.02542	0.90571
785.97327	0.90138
783.92112	0.89702
781.86897	0.89356
779.81682	0.89232
777.76467	0.89269
775.71252	0.89422
773.66037	0.89689
771.60822	0.89975
769.55607	0.90166
767.50392	0.90243
765.45178	0.90226
763.39963	0.90122
761.34748	0.89946
759.29533	0.89760
757.24318	0.89639
755.19103	0.89575
753.13888	0.89461
751.08673	0.89241
749.03458	0.88983
746.98243	0.88728
744.93028	0.88462
742.87813	0.88196
740.82598	0.87903
738.77383	0.87588
736.72168	0.87295
734.66953	0.86994
732.61738	0.86659
730.56523	0.86315
728.51308	0.85972
726.46093	0.85629
724.40878	0.85307
722.35663	0.84999
720.30449	0.84675
718.25234	0.84366
716.20019	0.84070
714.14804	0.83716
712.09589	0.83327
710.04374	0.82969
707.99159	0.82607
705.93944	0.82233
703.88729	0.81918
701.83514	0.81652
699.78299	0.81359
697.73084	0.81039
695.67869	0.80718
693.62654	0.80410
691.57439	0.80122
689.52224	0.79839
687.47009	0.79580
685.41794	0.79315
683.36579	0.78981
681.31364	0.78643
679.26149	0.78361
677.20935	0.78099
675.15720	0.77850
673.10505	0.77640
671.05290	0.77503
669.00075	0.77359
666.94860	0.77070
664.89645	0.76827
662.84430	0.76638
660.79215	0.76388
658.74000	0.76098
656.68785	0.75801
654.63570	0.75537
652.58355	0.75397
650.53140	0.75369
648.47925	0.75300
646.42710	0.75107
644.37495	0.74899
642.32280	0.74788
640.27065	0.74706
638.21850	0.74590
636.16635	0.74486
634.11421	0.74418
632.06206	0.74335
630.00991	0.74212
627.95776	0.74112
625.90561	0.74075
623.85346	0.74031
621.80131	0.73971
619.74916	0.73970
617.69701	0.74018
615.64486	0.74114
613.59271	0.74273
611.54056	0.74438
609.48841	0.74564
607.43626	0.74672
605.38411	0.74766
603.33196	0.74845
601.27981	0.74933
599.22766	0.75055
597.17551	0.75202
595.12336	0.75353
593.07121	0.75494
591.01906	0.75595
588.96692	0.75711
586.91477	0.75843
584.86262	0.75929
582.81047	0.76082
580.75832	0.76350
578.70617	0.76630
576.65402	0.76869
574.60187	0.77038
572.54972	0.77235
570.49757	0.77533
568.44542	0.77811
566.39327	0.78058
564.34112	0.78358
562.28897	0.78722
560.23682	0.79075
558.18467	0.79308
556.13252	0.79468
554.08037	0.79663
552.02822	0.79937
549.97607	0.80221
547.92392	0.80354
545.87178	0.80392
543.81963	0.80469
541.76748	0.80434
539.71533	0.80018
537.66318	0.79143
535.61103	0.77933
533.55888	0.76506
531.50673	0.74928
529.45458	0.73424
527.40243	0.72394
525.35028	0.72152
523.29813	0.72766
521.24598	0.74066
519.19383	0.75714
517.14168	0.77350
515.08953	0.78740
513.03738	0.79835
510.98523	0.80778
508.93308	0.81686
506.88093	0.82526
504.82878	0.83226
502.77664	0.83858
500.72449	0.84511
498.67234	0.85203
496.62019	0.85847
494.56804	0.86279
492.51589	0.86527
490.46374	0.86828
488.41159	0.87211
486.35944	0.87505
484.30729	0.87751
482.25514	0.88008
480.20299	0.88264
478.15084	0.88679
476.09869	0.89363
474.04654	0.90305
471.99439	0.91431
469.94224	0.92373
467.89009	0.93019
465.83794	0.93569
463.78579	0.94123
461.73364	0.94613
459.68149	0.94856
457.62935	0.94895
455.57720	0.95035
453.52505	0.95271
451.47290	0.95379
449.42075	0.95382
447.36860	0.95275
445.31645	0.94968
443.26430	0.94708
441.21215	0.94536
439.16000	0.94244
437.10785	0.94004
435.05570	0.93978
433.00355	0.93970
430.95140	0.94055
428.89925	0.94332
426.84710	0.94647
424.79495	0.94938
422.74280	0.95078
420.69065	0.95282
418.63850	0.96015
416.58635	0.96857
414.53421	0.97278
412.48206	0.97458
410.42991	0.97696
408.37776	0.97864
406.32561	0.97979
404.27346	0.98424
402.22131	0.98961
400.16916	0.99466
398.11701	1.00000
